Time,Signal
0.0,0.07210916053781001
1.0090817356205852e-09,0.07101951952788546
2.0181634712411704e-09,0.06985363067156525
3.0272452068617556e-09,0.06861396308652844
4.036326942482341e-09,0.06730517806195632
5.0454086781029255e-09,0.06593417006722752
6.054490413723511e-09,0.06451012338081417
7.063572149344097e-09,0.06304458120942023
8.072653884964682e-09,0.061551520506891805
9.081735620585266e-09,0.060047420659160945
1.0090817356205851e-08,0.05855130742512149
1.1099899091826438e-08,0.057084744871021914
1.2108980827447022e-08,0.05567173787866758
1.3118062563067607e-08,0.05433849749965761
1.4127144298688194e-08,0.053113013876681575
1.5136226034308778e-08,0.05202438153179584
1.6145307769929363e-08,0.051101836060425565
1.7154389505549948e-08,0.05037349601682725
1.8163471241170533e-08,0.0498648612825798
1.9172552976791117e-08,0.049597192424131936
2.0181634712411702e-08,0.04958596479753684
2.119071644803229e-08,0.04983962754207597
2.2199798183652875e-08,0.0503588755637683
2.320887991927346e-08,0.05113655675937924
2.4217961654894045e-08,0.052158210737752175
2.522704339051463e-08,0.05340311302708835
2.6236125126135214e-08,0.05484562146253265
2.72452068617558e-08,0.056456607107256744
2.8254288597376387e-08,0.05820479087668256
2.9263370332996972e-08,0.060057872882574116
3.0272452068617557e-08,0.06198340802281278
3.128153380423814e-08,0.06394943208722301
3.2290615539858726e-08,0.06592487269153358
3.3299697275479314e-08,0.06787979148872256
3.4308779011099896e-08,0.06978550418282077
3.5317860746720484e-08,0.071614618553983
3.6326942482341065e-08,0.07334102211239801
3.7336024217961653e-08,0.07493984255640536
3.8345105953582235e-08,0.07638739704600682
3.935418768920282e-08,0.07766114074020605
4.0363269424823404e-08,0.07873962099221749
4.137235116044399e-08,0.07960244079124988
4.238143289606458e-08,0.08023023319498591
4.339051463168516e-08,0.08060464735912372
4.439959636730575e-08,0.08070834614159234
4.540867810292633e-08,0.08052501500004147
4.641775983854692e-08,0.08003938192651631
4.74268415741675e-08,0.07923724843774366
4.843592330978809e-08,0.07810553217991072
4.944500504540868e-08,0.07663232259417367
5.045408678102926e-08,0.07480695249917978
5.146316851664985e-08,0.07262009071534083
5.247225025227043e-08,0.07006386461135203
5.3481331987891016e-08,0.06713202789507641
5.44904137235116e-08,0.06382020045898651
5.5499495459132186e-08,0.060126228474061544
5.6508577194752774e-08,0.05605075467192466
5.7517658930373355e-08,0.051598174783669425
5.8526740665993944e-08,0.046778344813673656
5.9535822401614525e-08,0.04160984910226265
6.054490413723511e-08,0.03612678380739777
6.15539858728557e-08,0.030394261677508496
6.256306760847628e-08,0.024548144742346453
6.357214934409687e-08,0.018910049339783252
6.458123107971745e-08,0.014334228476387304
6.559031281533803e-08,0.012786830022097092
6.659939455095863e-08,0.01578928178220349
6.760847628657921e-08,0.021923932448364613
6.861755802219979e-08,0.029586417293221492
6.962663975782037e-08,0.03809143107603636
7.063572149344097e-08,0.0471656183462329
7.164480322906155e-08,0.0566811692420746
7.265388496468213e-08,0.06656609339107376
7.366296670030273e-08,0.07677222789548864
7.467204843592331e-08,0.0872624288787842
7.568113017154389e-08,0.09800487831899075
7.669021190716447e-08,0.10897033274598376
7.769929364278506e-08,0.12013070729249599
7.870837537840565e-08,0.1314583154743525
7.971745711402623e-08,0.14292545321972921
8.072653884964681e-08,0.1545041743787622
8.17356205852674e-08,0.1661661783164974
8.274470232088798e-08,0.17788276619684082
8.375378405650857e-08,0.1896248411631328
8.476286579212916e-08,0.20136293766380248
8.577194752774974e-08,0.2130672708085347
8.678102926337032e-08,0.22470779991347103
8.77901109989909e-08,0.2362543023520014
8.87991927346115e-08,0.24767645503035787
8.980827447023208e-08,0.2589439215634616
9.081735620585266e-08,0.2700264437121039
9.182643794147326e-08,0.28089393596045586
9.283551967709384e-08,0.2915165823248085
9.384460141271442e-08,0.3018649346282119
9.4853683148335e-08,0.3119100115750458
9.58627648839556e-08,0.32162339802967804
9.687184661957618e-08,0.33097734395409734
9.788092835519676e-08,0.33994486249727435
9.889001009081735e-08,0.34849982675833996
9.989909182643794e-08,0.3566170647694769
1.0090817356205852e-07,0.3642724522647032
1.019172552976791e-07,0.3714430028189221
1.029263370332997e-07,0.3781069549586999
1.0393541876892028e-07,0.3842438558629102
1.0494450050454086e-07,0.38983464128814405
1.0595358224016145e-07,0.39486171137097836
1.0696266397578203e-07,0.3993090019770569
1.0797174571140261e-07,0.4031620512856388
1.089808274470232e-07,0.4064080613179447
1.0998990918264379e-07,0.40903595413830884
1.1099899091826437e-07,0.41103642247894084
1.1200807265388495e-07,0.41240197456198774
1.1301715438950555e-07,0.4131269729166134
1.1402623612512613e-07,0.41320766701400397
1.1503531786074671e-07,0.4126422195695462
1.1604439959636729e-07,0.4114307263889731
1.1705348133198789e-07,0.4095752296640587
1.1806256306760847e-07,0.40707972465350406
1.1907164480322905e-07,0.4039501597161482
1.2008072653884963e-07,0.4001944296966344
1.2108980827447023e-07,0.3958223626984131
1.2209889001009082e-07,0.39084570031574195
1.231079717457114e-07,0.3852780714355217
1.2411705348133198e-07,0.3791349597619565
1.2512613521695255e-07,0.3724336652628614
1.2613521695257315e-07,0.36519325978694117
1.2714429868819374e-07,0.357434537157918
1.281533804238143e-07,0.3491799581157645
1.291624621594349e-07,0.3404535905500278
1.301715438950555e-07,0.33128104555864923
1.3118062563067607e-07,0.32168940997246354
1.3218970736629666e-07,0.3117071761170319
1.3319878910191726e-07,0.3013641697485263
1.3420787083753783e-07,0.2906914773113436
1.3521695257315842e-07,0.2797213739394577
1.36226034308779e-07,0.26848725398589873
1.3723511604439958e-07,0.2570235663506881
1.3824419778002018e-07,0.2453657575383455
1.3925327951564075e-07,0.2335502262867766
1.4026236125126134e-07,0.22161429488066706
1.4127144298688194e-07,0.2095962040596246
1.422805247225025e-07,0.19753514100289954
1.432896064581231e-07,0.185471313596313
1.442986881937437e-07,0.1734460896412852
1.4530776992936426e-07,0.16150222773976378
1.4631685166498486e-07,0.1496842386501582
1.4732593340060545e-07,0.13803893404392706
1.4833501513622602e-07,0.12661624690369688
1.4934409687184661e-07,0.11547044864116025
1.5035317860746718e-07,0.10466194760599251
1.5136226034308778e-07,0.09425993542843566
1.5237134207870837e-07,0.08434624303989505
1.5338042381432894e-07,0.07502082493066581
1.5438950554994953e-07,0.06640912462828755
1.5539858728557013e-07,0.05867066918583409
1.564076690211907e-07,0.05200543916593616
1.574167507568113e-07,0.04664832212891117
1.5842583249243189e-07,0.04283392328768209
1.5943491422805245e-07,0.04071845920861683
1.6044399596367305e-07,0.04028557099120686
1.6145307769929362e-07,0.04131247108921298
1.624621594349142e-07,0.04343864604571389
1.634712411705348e-07,0.04627884451354793
1.6448032290615538e-07,0.04950090408480702
1.6548940464177597e-07,0.05285005601306144
1.6649848637739656e-07,0.0561421032671284
1.6750756811301713e-07,0.05924739072198004
1.6851664984863773e-07,0.062075766264030795
1.6952573158425832e-07,0.06456520902859987
1.705348133198789e-07,0.06667392398718652
1.7154389505549948e-07,0.06837503783536494
1.7255297679112008e-07,0.06965309729928107
1.7356205852674065e-07,0.07050178703410383
1.7457114026236124e-07,0.07092247846856589
1.755802219979818e-07,0.07092336258991014
1.765893037336024e-07,0.07051901651278998
1.77598385469223e-07,0.06973031923314803
1.7860746720484357e-07,0.06858467699245421
1.7961654894046416e-07,0.06711654972097596
1.8062563067608476e-07,0.06536828923930764
1.8163471241170533e-07,0.06339130417248547
1.8264379414732592e-07,0.061247545277368136
1.8365287588294652e-07,0.05901123636376461
1.8466195761856708e-07,0.056770624181809566
1.8567103935418768e-07,0.05462924018482429
1.8668012108980827e-07,0.05270573549458767
1.8768920282542884e-07,0.05113085835075002
1.8869828456104944e-07,0.05003994513289926
1.8970736629667e-07,0.04956007018667488
1.907164480322906e-07,0.04979331709479707
1.917255297679112e-07,0.05080083410745494
1.9273461150353176e-07,0.052593904810517005
1.9374369323915236e-07,0.05513583196204975
1.9475277497477295e-07,0.05835315839692882
1.9576185671039352e-07,0.06215084594775693
1.9677093844601411e-07,0.06642605446656949
1.977800201816347e-07,0.07107777922990549
1.9878910191725528e-07,0.07601218080891271
1.9979818365287587e-07,0.08114471812316323
2.0080726538849644e-07,0.08640037158078165
2.0181634712411703e-07,0.09171293329582843
2.0282542885973763e-07,0.0970239641414631
2.038345105953582e-07,0.10228173225839127
2.048435923309788e-07,0.10744027205412487
2.058526740665994e-07,0.11245860807011826
2.0686175580221996e-07,0.11730014284151412
2.0787083753784055e-07,0.12193218952285902
2.0887991927346114e-07,0.12632562506313672
2.098890010090817e-07,0.13045464070648805
2.108980827447023e-07,0.1342965698371227
2.119071644803229e-07,0.13783177692404272
2.1291624621594347e-07,0.1410435948106491
2.1392532795156407e-07,0.1439183005815049
2.1493440968718463e-07,0.14644512268718454
2.1594349142280523e-07,0.1486162739673328
2.1695257315842582e-07,0.15042700675285933
2.179616548940464e-07,0.15187568741512503
2.1897073662966699e-07,0.15296388860825733
2.1997981836528758e-07,0.15369649804029187
2.2098890010090815e-07,0.15408184290040072
2.2199798183652874e-07,0.1541318290204392
2.2300706357214934e-07,0.153862093378613
2.240161453077699e-07,0.15329216753671032
2.250252270433905e-07,0.1524456478676025
2.260343087790111e-07,0.15135036575671174
2.2704339051463166e-07,0.15003854709460213
2.2805247225025226e-07,0.14854694506127186
2.2906155398587283e-07,0.14691692325077402
2.3007063572149342e-07,0.14519445761358388
2.3107971745711402e-07,0.143430015928094
2.3208879919273458e-07,0.1416782636708289
2.3309788092835518e-07,0.13999753737689125
2.3410696266397577e-07,0.13844902427015915
2.3511604439959634e-07,0.13709559468025106
2.3612512613521694e-07,0.13600025655927303
2.3713420787083753e-07,0.13522424295154442
2.381432896064581e-07,0.1348248031983182
2.391523713420787e-07,0.1348528396930806
2.4016145307769926e-07,0.13535059864248217
2.411705348133199e-07,0.1363496642825987
2.4217961654894045e-07,0.13786950147091895
2.43188698284561e-07,0.1399167326678249
2.4419778002018164e-07,0.14248523118793327
2.452068617558022e-07,0.14555698941968723
2.462159434914228e-07,0.14910361180867215
2.4722502522704335e-07,0.15308821455429472
2.4823410696266397e-07,0.15746749766214474
2.4924318869828454e-07,0.1621937833724269
2.502522704339051e-07,0.16721687037123828
2.512613521695257e-07,0.17248561605829732
2.522704339051463e-07,0.17794921475187062
2.5327951564076686e-07,0.18355818052735318
2.542885973763875e-07,0.18926506812932428
2.5529767911200805e-07,0.1950249766018312
2.563067608476286e-07,0.20079588193507364
2.5731584258324924e-07,0.2065388409943939
2.583249243188698e-07,0.21221810228817256
2.593340060544904e-07,0.21780115174626782
2.60343087790111e-07,0.22325871476394413
2.6135216952573157e-07,0.22856472984866721
2.6236125126135213e-07,0.23369630443630104
2.6337033299697276e-07,0.23863365975764975
2.643794147325933e-07,0.2433600688807764
2.653884964682139e-07,0.24786179004838596
2.663975782038345e-07,0.25212799600213825
2.674066599394551e-07,0.25615069899191634
2.6841574167507565e-07,0.25992467049229656
2.6942482341069627e-07,0.2634473542033554
2.7043390514631684e-07,0.26671877063539173
2.714429868819374e-07,0.2697414114239849
2.72452068617558e-07,0.27252012146574583
2.734611503531786e-07,0.2750619669912279
2.7447023208879917e-07,0.277376087794242
2.7547931382441973e-07,0.27947353201772657
2.7648839556004035e-07,0.28136707216153106
2.774974772956609e-07,0.28307100133572316
2.785065590312815e-07,0.28460090924344483
2.795156407669021e-07,0.2859734379469863
2.805247225025227e-07,0.28720601815214725
2.8153380423814325e-07,0.28831658753437744
2.8254288597376387e-07,0.2893232935112254
2.8355196770938444e-07,0.29024418381299166
2.84561049445005e-07,0.2910968891779709
2.8557013118062563e-07,0.291898303448099
2.865792129162462e-07,0.2926642672021341
2.8758829465186676e-07,0.29340926176645654
2.885973763874874e-07,0.2941461209168687
2.8960645812310795e-07,0.2948857677634865
2.906155398587285e-07,0.29563698414474715
2.9162462159434914e-07,0.29640621931840794
2.926337033299697e-07,0.29719744382884594
2.936427850655903e-07,0.298012053185077
2.946518668012109e-07,0.2988488244683976
2.9566094853683147e-07,0.2997039272947247
2.9667003027245204e-07,0.3005709887947261
2.976791120080726e-07,0.30144121056112405
2.9868819374369323e-07,0.30230353395759624
2.996972754793138e-07,0.3031448488805549
3.0070635721493436e-07,0.303950240080869
3.01715438950555e-07,0.304703264523605
3.0272452068617555e-07,0.3053862529949674
3.037336024217961e-07,0.3059806292334786
3.0474268415741674e-07,0.3064672402215079
3.057517658930373e-07,0.30682669186340633
3.067608476286579e-07,0.3070396850309144
3.077699293642785e-07,0.30708734780864627
3.0877901109989907e-07,0.3069515606615928
3.0978809283551964e-07,0.30661527212125134
3.1079717457114026e-07,0.30606280340662056
3.118062563067608e-07,0.3052801411310558
3.128153380423814e-07,0.30425521787533666
3.13824419778002e-07,0.3029781809177029
3.148335015136226e-07,0.30144164979346594
3.1584258324924315e-07,0.299640963601368
3.1685166498486377e-07,0.2975744190697968
3.1786074672048434e-07,0.29524350032611785
3.188698284561049e-07,0.2926531010504657
3.1987891019172553e-07,0.28981173920286896
3.208879919273461e-07,0.28673176373636255
3.2189707366296667e-07,0.2834295515790795
3.2290615539858723e-07,0.27992569159940583
3.2391523713420786e-07,0.27624515016188567
3.249243188698284e-07,0.2724174101368447
3.25933400605449e-07,0.26847657175943207
3.269424823410696e-07,0.2644613995097855
3.279515640766902e-07,0.2604152942733278
3.2896064581231075e-07,0.2563861646836159
3.2996972754793137e-07,0.252426166266603
3.3097880928355194e-07,0.2485912726872589
3.319878910191725e-07,0.2449406413965746
3.3299697275479313e-07,0.24153573809636347
3.340060544904137e-07,0.2384391927847907
3.3501513622603427e-07,0.23571337670240386
3.360242179616549e-07,0.23341871541194115
3.3703329969727545e-07,0.2316117878611106
3.38042381432896e-07,0.23034330121162533
3.3905146316851664e-07,0.22965606994402651
3.400605449041372e-07,0.2295831562758641
3.410696266397578e-07,0.23014633789331534
3.420787083753784e-07,0.23135505181628704
3.4308779011099897e-07,0.23320591921078004
3.4409687184661954e-07,0.23568289180320134
3.4510595358224016e-07,0.23875798897873793
3.4611503531786073e-07,0.24239253061464838
3.471241170534813e-07,0.24653872657986106
3.481331987891019e-07,0.25114146581129154
3.491422805247225e-07,0.2561401549893236
3.5015136226034305e-07,0.26147048260940103
3.511604439959636e-07,0.26706601976548217
3.5216952573158424e-07,0.2728596058192651
3.531786074672048e-07,0.2787844992964655
3.541876892028254e-07,0.2847752987145339
3.55196770938446e-07,0.29076865397850626
3.5620585267406657e-07,0.29670379747863596
3.5721493440968714e-07,0.3025229268353819
3.5822401614530776e-07,0.30817147022784386
3.592330978809283e-07,0.3135982620205266
3.602421796165489e-07,0.31875565218276947
3.612512613521695e-07,0.3235995685889614
3.622603430877901e-07,0.3280895471791896
3.6326942482341065e-07,0.3321887413907334
3.6427850655903127e-07,0.3358639193227162
3.6528758829465184e-07,0.3390854547560194
3.662966700302724e-07,0.3418273163558199
3.6730575176589303e-07,0.3440670580527161
3.683148335015136e-07,0.3457858126460833
3.6932391523713417e-07,0.34696829002276364
3.703329969727548e-07,0.34760278096897407
3.7134207870837536e-07,0.34768116731850923
3.723511604439959e-07,0.34719893908150584
3.7336024217961655e-07,0.34615521919947073
3.743693239152371e-07,0.3445527966444984
3.753784056508577e-07,0.3423981686979279
3.7638748738647825e-07,0.3397015933814269
3.7739656912209887e-07,0.3364771531448203
3.7840565085771944e-07,0.3327428310072715
3.7941473259334e-07,0.3285206003587241
3.8042381432896063e-07,0.3238365294978772
3.814328960645812e-07,0.3187209016293116
3.8244197780020177e-07,0.3132083503518307
3.834510595358224e-07,0.3073380094866739
3.8446014127144296e-07,0.3011536742095008
3.854692230070635e-07,0.29470396759416506
3.8647830474268415e-07,0.28804250251683367
3.874873864783047e-07,0.2812280230256671
3.884964682139253e-07,0.27432450137293124
3.895055499495459e-07,0.2674011566535182
3.9051463168516647e-07,0.26053234840713474
3.9152371342078704e-07,0.2537972842278414
3.9253279515640766e-07,0.24727946602232315
3.9354187689202823e-07,0.24106578825239086
3.945509586276488e-07,0.235245198444974
3.955600403632694e-07,0.2299068425544004
3.9656912209889e-07,0.22513765341397782
3.9757820383451055e-07,0.22101940576022802
3.985872855701312e-07,0.2176253562694756
3.9959636730575174e-07,0.21501670070355755
4.006054490413723e-07,0.21323918770237132
4.016145307769929e-07,0.21232029445543685
4.026236125126135e-07,0.2122673588886687
4.0363269424823407e-07,0.2130669595539026
4.0464177598385464e-07,0.21468565295775022
4.0565085771947526e-07,0.21707196452430494
4.0665993945509583e-07,0.2201593435628904
4.076690211907164e-07,0.22386968283450975
4.08678102926337e-07,0.22811698766395738
4.096871846619576e-07,0.23281084361425514
4.1069626639757815e-07,0.23785944116132748
4.117053481331988e-07,0.24317203369527587
4.1271442986881934e-07,0.24866080480430483
4.137235116044399e-07,0.2542421897887184
4.1473259334006053e-07,0.2598377342251804
4.157416750756811e-07,0.2653745854528761
4.1675075681130167e-07,0.27078570947815495
4.177598385469223e-07,0.2760099135628836
4.1876892028254286e-07,0.28099173921751724
4.197780020181634e-07,0.2856812748998846
4.2078708375378405e-07,0.29003392419262874
4.217961654894046e-07,0.29401015424600374
4.228052472250252e-07,0.29757524083107423
4.238143289606458e-07,0.30069902014025013
4.2482341069626637e-07,0.30335565307822254
4.2583249243188694e-07,0.30552340479089235
4.268415741675075e-07,0.3071844402210575
4.2785065590312813e-07,0.3083246352657099
4.288597376387487e-07,0.30893340241688466
4.2986881937436927e-07,0.3090035294305706
4.308779011099899e-07,0.3085310294672792
4.3188698284561046e-07,0.3075150012002825
4.32896064581231e-07,0.3059574975365688
4.3390514631685165e-07,0.3038634018037517
4.349142280524722e-07,0.3012403104998551
4.359233097880928e-07,0.29809842196811226
4.369323915237134e-07,0.29445043063870624
4.3794147325933397e-07,0.2903114267716549
4.3895055499495454e-07,0.285698801941348
4.3995963673057516e-07,0.2806321608278166
4.4096871846619573e-07,0.27513324022895763
4.419778002018163e-07,0.2692258365895189
4.429868819374369e-07,0.26293574376563883
4.439959636730575e-07,0.25629070321736386
4.4500504540867806e-07,0.24932036935409765
4.460141271442987e-07,0.24205629335436835
4.4702320887991925e-07,0.23453192943932286
4.480322906155398e-07,0.22678266828240576
4.4904137235116043e-07,0.21884590294334913
4.50050454086781e-07,0.21076113333525515
4.5105953582240157e-07,0.20257011560552832
4.520686175580222e-07,0.19431706264651477
4.5307769929364276e-07,0.1860489007642562
4.5408678102926333e-07,0.17781558453646903
4.550958627648839e-07,0.1696704658587937
4.561049445005045e-07,0.16167070230028208
4.571140262361251e-07,0.15387767167371635
4.5812310797174565e-07,0.14635733113352406
4.591321897073663e-07,0.13918041726143685
4.6014127144298684e-07,0.13242232764635764
4.611503531786074e-07,0.12616245943898224
4.6215943491422803e-07,0.12048272330143761
4.631685166498486e-07,0.1154649379520827
4.6417759838546917e-07,0.111186897107325
4.651866801210898e-07,0.1077171465590515
4.6619576185671036e-07,0.10510893120163342
4.6720484359233093e-07,0.10339427827015865
4.6821392532795155e-07,0.10257954422863871
4.692230070635721e-07,0.10264368931153532
4.702320887991927e-07,0.1035399352752032
4.712411705348133e-07,0.10520051400736884
4.722502522704339e-07,0.10754337668672576
4.7325933400605444e-07,0.1104793877445465
4.7426841574167506e-07,0.11391873688752628
4.7527749747729563e-07,0.11777583345768086
4.762865792129162e-07,0.12197249642558121
4.772956609485368e-07,0.12643963119065096
