Time,Signal
0.0,0.1965865946555267
1.0090817356205852e-09,0.19879572102103044
2.0181634712411704e-09,0.2011244931817645
3.0272452068617556e-09,0.20356167343196166
4.036326942482341e-09,0.20609601787890858
5.0454086781029255e-09,0.20871635765865054
6.054490413723511e-09,0.21141166902171155
7.063572149344097e-09,0.21417113267924812
8.072653884964682e-09,0.21698418306096762
9.081735620585266e-09,0.21984054831172606
1.0090817356205851e-08,0.2227302819558468
1.1099899091826438e-08,0.22564378720025877
1.2108980827447022e-08,0.22857183484296487
1.3118062563067607e-08,0.23150557571457495
1.4127144298688194e-08,0.23443654851849605
1.5136226034308778e-08,0.2373566838588923
1.6145307769929363e-08,0.24025830516184832
1.7154389505549948e-08,0.24313412710967564
1.8163471241170533e-08,0.24597725212491606
1.9172552976791117e-08,0.24878116536190306
2.0181634712411702e-08,0.25153972859141766
2.119071644803229e-08,0.2542471732988036
2.2199798183652875e-08,0.25689809325823165
2.320887991927346e-08,0.2594874367954582
2.4217961654894045e-08,0.2620104989080494
2.522704339051463e-08,0.26446291337508576
2.6236125126135214e-08,0.26684064495719995
2.72452068617558e-08,0.26913998176175796
2.8254288597376387e-08,0.271357527826451
2.9263370332996972e-08,0.27349019595687074
3.0272452068617557e-08,0.27553520083925015
3.128153380423814e-08,0.2774900524379515
3.2290615539858726e-08,0.27935254967799567
3.3299697275479314e-08,0.28112077440558564
3.4308779011099896e-08,0.2827930856138039
3.5317860746720484e-08,0.2843681139161908
3.6326942482341065e-08,0.2858447562474638
3.7336024217961653e-08,0.2872221707680147
3.8345105953582235e-08,0.2884997719468548
3.935418768920282e-08,0.2896772257961796
4.0363269424823404e-08,0.29075444522963145
4.137235116044399e-08,0.29173158551549133
4.238143289606458e-08,0.29260903979538405
4.339051463168516e-08,0.29338743463856093
4.439959636730575e-08,0.29406762560136274
4.540867810292633e-08,0.29465069276105693
4.641775983854692e-08,0.29513793619281126
4.74268415741675e-08,0.2955308713581411
4.843592330978809e-08,0.29583122437269593
4.944500504540868e-08,0.2960409271207562
5.045408678102926e-08,0.29616211218328115
5.146316851664985e-08,0.29619710754580497
5.247225025227043e-08,0.2961484310519335
5.3481331987891016e-08,0.2960187845676657
5.44904137235116e-08,0.29581104782130824
5.5499495459132186e-08,0.29552827188337316
5.6508577194752774e-08,0.29517367225063146
5.7517658930373355e-08,0.29475062149846093
5.8526740665993944e-08,0.294262641465865
5.9535822401614525e-08,0.2937133949380958
6.054490413723511e-08,0.29310667679278596
6.15539858728557e-08,0.29244640457694787
6.256306760847628e-08,0.2917366084842251
6.357214934409687e-08,0.2909814207044818
6.458123107971745e-08,0.29018506412125833
6.559031281533803e-08,0.2893518403369248
6.659939455095863e-08,0.2884861170105809
6.760847628657921e-08,0.2875923144999895
6.861755802219979e-08,0.28667489180611877
6.962663975782037e-08,0.28573833182728114
7.063572149344097e-08,0.2847871259393775
7.164480322906155e-08,0.28382575792940723
7.265388496468213e-08,0.2828586873211053
7.366296670030273e-08,0.2818903321442431
7.467204843592331e-08,0.2809250512126416
7.568113017154389e-08,0.2799671259900843
7.669021190716447e-08,0.2790207421378731
7.769929364278506e-08,0.2780899708524001
7.870837537840565e-08,0.2771787501155072
7.971745711402623e-08,0.2762908659941553
8.072653884964681e-08,0.2754299341385938
8.17356205852674e-08,0.27459938163937025
8.274470232088798e-08,0.27380242941266614
8.375378405650857e-08,0.2730420752901515
8.476286579212916e-08,0.2723210779933715
8.577194752774974e-08,0.2716419421732668
8.678102926337032e-08,0.2710069046924613
8.77901109989909e-08,0.2704179223212299
8.87991927346115e-08,0.26987666100751967
8.980827447023208e-08,0.26938448686702093
9.081735620585266e-08,0.2689424590213079
9.182643794147326e-08,0.268551324390746
9.283551967709384e-08,0.2682115145246744
9.384460141271442e-08,0.26792314452485344
9.4853683148335e-08,0.26768601408999554
9.58627648839556e-08,0.2674996106800973
9.687184661957618e-08,0.26736311477004227
9.788092835519676e-08,0.2672754071333381
9.889001009081735e-08,0.2672350780696418
9.989909182643794e-08,0.2672404384646281
1.0090817356205852e-07,0.26728953254838655
1.019172552976791e-07,0.26738015219938893
1.029263370332997e-07,0.2675098526255562
1.0393541876892028e-07,0.26767596924228343
1.0494450050454086e-07,0.26787563555958954
1.0595358224016145e-07,0.26810580188677313
1.0696266397578203e-07,0.26836325466295796
1.0797174571140261e-07,0.2686446362253855
1.089808274470232e-07,0.26894646483394996
1.0998990918264379e-07,0.26926515477979646
1.1099899091826437e-07,0.2695970364173932
1.1200807265388495e-07,0.2699383759728179
1.1301715438950555e-07,0.27028539499560217
1.1402623612512613e-07,0.2706342893368649
1.1503531786074671e-07,0.27098124755221537
1.1604439959636729e-07,0.27132246864360815
1.1705348133198789e-07,0.2716541790696461
1.1806256306760847e-07,0.271972648968487
1.1907164480322905e-07,0.27227420755124265
1.2008072653884963e-07,0.2725552576364488
1.2108980827447023e-07,0.272812289307657
1.2209889001009082e-07,0.2730418926864281
1.231079717457114e-07,0.2732407698219327
1.2411705348133198e-07,0.2734057457060116
1.2512613521695255e-07,0.2735337784289452
1.2613521695257315e-07,0.2736219684963863
1.2714429868819374e-07,0.273667567332017
1.281533804238143e-07,0.2736679849935558
1.291624621594349e-07,0.2736207971318864
1.301715438950555e-07,0.2735237512243977
1.3118062563067607e-07,0.27337477211419753
1.3218970736629666e-07,0.2731719668868031
1.3319878910191726e-07,0.27291362911529726
1.3420787083753783e-07,0.2725982425038526
1.3521695257315842e-07,0.27222448395804744
1.36226034308779e-07,0.27179122610858747
1.3723511604439958e-07,0.2712975393129694
1.3824419778002018e-07,0.2707426931573192
1.3925327951564075e-07,0.2701261574781698
1.4026236125126134e-07,0.26944760292132425
1.4127144298688194e-07,0.2687069010522262
1.422805247225025e-07,0.26790412402946007
1.432896064581231e-07,0.2670395438501242
1.442986881937437e-07,0.2661136311729149
1.4530776992936426e-07,0.265127053721806
1.4631685166498486e-07,0.2640806742702494
1.4732593340060545e-07,0.26297554820285507
1.4833501513622602e-07,0.26181292064854944
1.4934409687184661e-07,0.2605942231762777
1.5035317860746718e-07,0.25932107004142413
1.5136226034308778e-07,0.2579952539683021
1.5237134207870837e-07,0.25661874145132807
1.5338042381432894e-07,0.2551936675548892
1.5438950554994953e-07,0.25372233018947676
1.5539858728557013e-07,0.25220718383943475
1.564076690211907e-07,0.2506508327157277
1.574167507568113e-07,0.24905602330554277
1.5842583249243189e-07,0.24742563628936676
1.5943491422805245e-07,0.24576267779553754
1.6044399596367305e-07,0.24407026996224698
1.6145307769929362e-07,0.24235164077769453
1.624621594349142e-07,0.2406101131706678
1.634712411705348e-07,0.23884909332640983
1.6448032290615538e-07,0.23707205820632823
1.6548940464177597e-07,0.2352825422550757
1.6649848637739656e-07,0.2334841232848817
1.6750756811301713e-07,0.23168040753487396
1.6851664984863773e-07,0.229875013912596
1.6952573158425832e-07,0.22807155743603733
1.705348133198789e-07,0.22627363190730707
1.7154389505549948e-07,0.22448479186354614
1.7255297679112008e-07,0.22270853386669937
1.7356205852674065e-07,0.22094827721120583
1.7457114026236124e-07,0.2192073441472502
1.755802219979818e-07,0.21748893973662878
1.765893037336024e-07,0.2157961314780728
1.77598385469223e-07,0.21413182885854126
1.7860746720484357e-07,0.21249876300591758
1.7961654894046416e-07,0.21089946663605122
1.8062563067608476e-07,0.2093362545024394
1.8163471241170533e-07,0.2078112045692952
1.8264379414732592e-07,0.20632614013753173
1.8365287588294652e-07,0.2048826131576169
1.8466195761856708e-07,0.20348188896270203
1.8567103935418768e-07,0.20212493264939835
1.8668012108980827e-07,0.20081239732178524
1.8768920282542884e-07,0.19954461439654544
1.8869828456104944e-07,0.19832158614368783
1.8970736629667e-07,0.19714298060850452
1.907164480322906e-07,0.19600812902683162
1.917255297679112e-07,0.19491602580822667
1.9273461150353176e-07,0.19386533112136195
1.9374369323915236e-07,0.1928543760740049
1.9475277497477295e-07,0.19188117043772518
1.9576185671039352e-07,0.1909434128262362
1.9677093844601411e-07,0.19003850319742993
1.977800201816347e-07,0.18916355751381733
1.9878910191725528e-07,0.18831542436535917
1.9979818365287587e-07,0.1874907033333372
2.0080726538849644e-07,0.1866857648546077
2.0181634712411703e-07,0.1858967713325806
2.0282542885973763e-07,0.1851196992346672
2.038345105953582e-07,0.1843503619155291
2.048435923309788e-07,0.18358443291083432
2.058526740665994e-07,0.1828174694567879
2.0686175580221996e-07,0.1820449360057191
2.0787083753784055e-07,0.1812622275266493
2.0887991927346114e-07,0.18046469240117255
2.098890010090817e-07,0.1796476547482911
2.108980827447023e-07,0.17880643603623012
2.119071644803229e-07,0.17793637586397368
2.1291624621594347e-07,0.17703285181964265
2.1392532795156407e-07,0.17609129834634055
2.1493440968718463e-07,0.17510722456828354
2.1594349142280523e-07,0.17407623105060757
2.1695257315842582e-07,0.1729940254849772
2.179616548940464e-07,0.17185643730994418
2.1897073662966699e-07,0.17065943128988553
2.1997981836528758e-07,0.1693991200893836
2.2098890010090815e-07,0.16807177589122457
2.2199798183652874e-07,0.16667384111600905
2.2300706357214934e-07,0.1652019383099096
2.240161453077699e-07,0.1636528792746974
2.250252270433905e-07,0.162023673521095
2.260343087790111e-07,0.16031153613317423
2.2704339051463166e-07,0.15851389513829317
2.2805247225025226e-07,0.15662839848442278
2.2906155398587283e-07,0.15465292073512732
2.3007063572149342e-07,0.15258556960255057
2.3107971745711402e-07,0.15042469245116602
2.3208879919273458e-07,0.14816888292064598
2.3309788092835518e-07,0.14581698783595212
2.3410696266397577e-07,0.1433681145979648
2.3511604439959634e-07,0.140821639280213
2.3612512613521694e-07,0.13817721569864966
2.3713420787083753e-07,0.13543478577459758
2.381432896064581e-07,0.1325945915795316
2.391523713420787e-07,0.1296571895389286
2.4016145307769926e-07,0.12662346738727684
2.411705348133199e-07,0.12349466461585852
2.4217961654894045e-07,0.12027239735046623
2.43188698284561e-07,0.11695868885317542
2.4419778002018164e-07,0.11355600718170134
2.452068617558022e-07,0.11006731199056595
2.462159434914228e-07,0.10649611305992407
2.4722502522704335e-07,0.10284654394510422
2.4823410696266397e-07,0.09912345522790286
2.4924318869828454e-07,0.09533253332259665
2.502522704339051e-07,0.09148045278558305
2.512613521695257e-07,0.08757507278435325
2.522704339051463e-07,0.08362569203967732
2.5327951564076686e-07,0.07964338145398346
2.542885973763875e-07,0.07564142007855586
2.5529767911200805e-07,0.07163586823846045
2.563067608476286e-07,0.06764632128096205
2.5731584258324924e-07,0.06369689711966868
2.583249243188698e-07,0.05981751630717637
2.593340060544904e-07,0.056045524556486884
2.60343087790111e-07,0.052427662360904535
2.6135216952573157e-07,0.04902226219186482
2.6236125126135213e-07,0.045901281970878956
2.6337033299697276e-07,0.043151287926910434
2.643794147325933e-07,0.040871795994647915
2.653884964682139e-07,0.039168822030566
2.663975782038345e-07,0.03814204491905508
2.674066599394551e-07,0.03786684669724502
2.6841574167507565e-07,0.03837715632144884
2.6942482341069627e-07,0.03965749971749672
2.7043390514631684e-07,0.041648723205960206
2.714429868819374e-07,0.044263829136380516
2.72452068617558e-07,0.0474057444769579
2.734611503531786e-07,0.050980704004837375
2.7447023208879917e-07,0.054905478159192105
2.7547931382441973e-07,0.05910973290321501
2.7648839556004035e-07,0.06353557085943255
2.774974772956609e-07,0.06813585412454824
2.785065590312815e-07,0.0728722382873291
2.795156407669021e-07,0.0777133500815858
2.805247225025227e-07,0.08263325855294278
2.8153380423814325e-07,0.0876102551986914
2.8254288597376387e-07,0.09262590584184256
2.8355196770938444e-07,0.0976643233431695
2.84561049445005e-07,0.10271161279953335
2.8557013118062563e-07,0.10775544874116136
2.865792129162462e-07,0.11278475236714622
2.8758829465186676e-07,0.11778944434071707
2.885973763874874e-07,0.12276025468420898
2.8960645812310795e-07,0.12768857595037977
2.906155398587285e-07,0.13256634933949007
2.9162462159434914e-07,0.13738597603277597
2.926337033299697e-07,0.14214024794075902
2.936427850655903e-07,0.1468222934923716
2.946518668012109e-07,0.15142553514977486
2.9566094853683147e-07,0.15594365612186378
2.9667003027245204e-07,0.16037057433867524
2.976791120080726e-07,0.16470042219169673
2.9868819374369323e-07,0.16892753087970838
2.996972754793138e-07,0.17304641845416832
3.0070635721493436e-07,0.1770517808527143
3.01715438950555e-07,0.18093848535907575
3.0272452068617555e-07,0.18470156604364024
3.037336024217961e-07,0.18833622082927942
3.0474268415741674e-07,0.19183780989792304
3.057517658930373e-07,0.19520185520934025
3.067608476286579e-07,0.1984240409481068
3.077699293642785e-07,0.20150021475039387
3.0877901109989907e-07,0.20442638959102613
3.0978809283551964e-07,0.20719874623474072
3.1079717457114026e-07,0.20981363617491305
3.118062563067608e-07,0.21226758499913698
3.128153380423814e-07,0.2145572961346692
3.13824419778002e-07,0.2166796549384482
3.148335015136226e-07,0.2186317331066445
3.1584258324924315e-07,0.22041079338785854
3.1685166498486377e-07,0.22201429459249059
3.1786074672048434e-07,0.22343989689869453
3.188698284561049e-07,0.22468546746297655
3.1987891019172553e-07,0.22574908635106786
3.208879919273461e-07,0.22662905281243248
3.2189707366296667e-07,0.22732389192981559
3.2290615539858723e-07,0.2278323616838201
3.2391523713420786e-07,0.22815346048178353
3.249243188698284e-07,0.2282864352104452
3.25933400605449e-07,0.22823078988326312
3.269424823410696e-07,0.2279862949660031
3.279515640766902e-07,0.2275529974786732
3.2896064581231075e-07,0.22693123198831172
3.2996972754793137e-07,0.22612163262592944
3.3097880928355194e-07,0.22512514628243954
3.319878910191725e-07,0.2239430471631533
3.3299697275479313e-07,0.22257695290886567
3.340060544904137e-07,0.22102884252428776
3.3501513622603427e-07,0.2193010763922023
3.360242179616549e-07,0.21739641869488888
3.3703329969727545e-07,0.21531806261378175
3.38042381432896e-07,0.21306965873462164
3.3905146316851664e-07,0.21065534714914907
3.400605449041372e-07,0.208079793816039
3.410696266397578e-07,0.2053482318233416
3.420787083753784e-07,0.2024665082816391
3.4308779011099897e-07,0.19944113766993407
3.4409687184661954e-07,0.1962793625519806
3.4510595358224016e-07,0.1929892226740939
3.4611503531786073e-07,0.18957963353783072
3.471241170534813e-07,0.18606047559880784
3.481331987891019e-07,0.18244269525579476
3.491422805247225e-07,0.17873841873172452
3.5015136226034305e-07,0.1749610797664758
3.511604439959636e-07,0.1711255616782173
3.5216952573158424e-07,0.1672483537204341
3.531786074672048e-07,0.16334772065160275
3.541876892028254e-07,0.1594438828976296
3.55196770938446e-07,0.1555592024458921
3.5620585267406657e-07,0.15171836646521045
3.5721493440968714e-07,0.1479485564071238
3.5822401614530776e-07,0.14427958488542345
3.592330978809283e-07,0.14074397599728994
3.602421796165489e-07,0.13737695731338243
3.612512613521695e-07,0.13421632444111875
3.622603430877901e-07,0.1313021335444966
3.6326942482341065e-07,0.12867617609873946
3.6427850655903127e-07,0.1263811968898241
3.6528758829465184e-07,0.12445983443005615
3.662966700302724e-07,0.12295329495235882
3.6730575176589303e-07,0.12189981616452596
3.683148335015136e-07,0.1213330289774129
3.6932391523713417e-07,0.1212803725745968
3.703329969727548e-07,0.12176174484933146
3.7134207870837536e-07,0.12278856250504863
3.723511604439959e-07,0.1243633577855747
3.7336024217961655e-07,0.12647995995497022
3.743693239152371e-07,0.12912421932625134
3.753784056508577e-07,0.13227515423451577
3.7638748738647825e-07,0.13590635566404313
3.7739656912209887e-07,0.13998747678796022
3.7840565085771944e-07,0.14448565942224614
3.7941473259334e-07,0.14936679278274395
3.8042381432896063e-07,0.1545965475028508
3.814328960645812e-07,0.1601411689813488
3.8244197780020177e-07,0.1659680435768777
3.834510595358224e-07,0.17204606834273595
3.8446014127144296e-07,0.17834586204276362
3.854692230070635e-07,0.18483985523174104
3.8647830474268415e-07,0.19150229318049306
3.874873864783047e-07,0.19830917964276135
3.884964682139253e-07,0.20523818338022984
3.895055499495459e-07,0.21226852380987804
3.9051463168516647e-07,0.21938084747667724
3.9152371342078704e-07,0.22655710336162227
3.9253279515640766e-07,0.23378042223510145
3.9354187689202823e-07,0.2410350032187007
3.945509586276488e-07,0.24830600927078444
3.955600403632694e-07,0.25557947232054357
3.9656912209889e-07,0.26284220812209114
3.9757820383451055e-07,0.2700817404894908
3.985872855701312e-07,0.2772862343327185
3.9959636730575174e-07,0.2844444367895965
4.006054490413723e-07,0.2915456257007269
4.016145307769929e-07,0.298579564675748
4.026236125126135e-07,0.30553646403064816
4.0363269424823407e-07,0.3124069469242734
4.0464177598385464e-07,0.3191820200788701
4.0565085771947526e-07,0.3258530485288181
4.0665993945509583e-07,0.332411733900104
4.076690211907164e-07,0.33885009577846875
4.08678102926337e-07,0.3451604557753905
4.096871846619576e-07,0.35133542394763984
4.1069626639757815e-07,0.3573678872679806
4.117053481331988e-07,0.363250999881811
4.1271442986881934e-07,0.368978174917464
4.137235116044399e-07,0.3745430776468429
4.1473259334006053e-07,0.3799396198184711
4.157416750756811e-07,0.3851619550072496
4.1675075681130167e-07,0.3902044748446202
4.177598385469223e-07,0.3950618060097659
4.1876892028254286e-07,0.3997288078772528
4.197780020181634e-07,0.4042005707294022
4.2078708375378405e-07,0.40847241445294435
4.217961654894046e-07,0.4125398876493287
4.228052472250252e-07,0.41639876709668566
4.238143289606458e-07,0.4200450575089772
4.2482341069626637e-07,0.42347499154450824
4.2583249243188694e-07,0.42668503002182095
4.268415741675075e-07,0.4296718623061543
4.2785065590312813e-07,0.4324324068342404
4.288597376387487e-07,0.43496381174928744
4.2986881937436927e-07,0.4372634556216587
4.308779011099899e-07,0.4393289482340421
4.3188698284561046e-07,0.4411581314128837
4.32896064581231e-07,0.4427490798905829
4.3390514631685165e-07,0.4441001021854427
4.349142280524722e-07,0.4452097414886867
4.359233097880928e-07,0.4460767765500367
4.369323915237134e-07,0.4467002225554056
4.3794147325933397e-07,0.4470793319922393
4.3895055499495454e-07,0.4472135954999579
4.3995963673057516e-07,0.4471027427048567
4.4096871846619573e-07,0.44674674304069417
4.419778002018163e-07,0.44614580655811903
4.429868819374369e-07,0.4453003847280396
4.439959636730575e-07,0.44421117124605836
4.4500504540867806e-07,0.4428791028472378
4.460141271442987e-07,0.44130536014270494
4.4702320887991925e-07,0.4394913684920348
4.480322906155398e-07,0.43743879892795495
4.4904137235116043e-07,0.43514956915277886
4.50050454086781e-07,0.43262584462908876
4.5105953582240157e-07,0.4298700397906563
4.520686175580222e-07,0.4268848194034167
4.5307769929364276e-07,0.42367310011060033
4.5408678102926333e-07,0.4202380522009103
4.550958627648839e-07,0.41658310164403484
4.561049445005045e-07,0.41271193244384835
4.571140262361251e-07,0.4086284893665263
4.5812310797174565e-07,0.40433698110858235
4.591321897073663e-07,0.39984188397865034
4.6014127144298684e-07,0.39514794617687027
4.611503531786074e-07,0.390260192767134
4.6215943491422803e-07,0.3851839314504238
4.631685166498486e-07,0.37992475926224295
4.6417759838546917e-07,0.3744885703339359
4.651866801210898e-07,0.36888156487679086
4.6619576185671036e-07,0.36311025956949344
4.6720484359233093e-07,0.357181499554045
4.6821392532795155e-07,0.3511024722729588
4.692230070635721e-07,0.34488072341170223
4.702320887991927e-07,0.33852417524511635
4.712411705348133e-07,0.3320411477251239
4.722502522704339e-07,0.3254403826892841
4.7325933400605444e-07,0.31873107161541725
4.7426841574167506e-07,0.31192288739581175
4.7527749747729563e-07,0.30502602065407425
4.762865792129162e-07,0.29805122117617994
4.772956609485368e-07,0.291009845071054
4.783047426841574e-07,0.2839139083094886
4.79313824419778e-07,0.27677614730510286
