Time,Signal
0.0,0.3554106495867925
1.0090817356205852e-09,0.3575096888000379
2.0181634712411704e-09,0.3594696627158669
3.0272452068617556e-09,0.3612937126517602
4.036326942482341e-09,0.36298512443753433
5.0454086781029255e-09,0.36454732136936524
6.054490413723511e-09,0.3659838567211132
7.063572149344097e-09,0.367298405805197
8.072653884964682e-09,0.36849475757697825
9.081735620585266e-09,0.36957680577854496
1.0090817356205851e-08,0.3705485396199962
1.1099899091826438e-08,0.37141403399879547
1.2108980827447022e-08,0.37217743926053837
1.3118062563067607e-08,0.3728429705075685
1.4127144298688194e-08,0.3734148964652717
1.5136226034308778e-08,0.3738975279196194
1.6145307769929363e-08,0.3742952057435663
1.7154389505549948e-08,0.3746122885342792
1.8163471241170533e-08,0.37485313988781377
1.9172552976791117e-08,0.37502211534276547
2.0181634712411702e-08,0.37512354902955825
2.119071644803229e-08,0.37516174006733216
2.2199798183652875e-08,0.37514093875581256
2.320887991927346e-08,0.3750653326149952
2.4217961654894045e-08,0.37493903233090536
2.522704339051463e-08,0.37476605767095855
2.6236125126135214e-08,0.37455032343750183
2.72452068617558e-08,0.37429562553281504
2.8254288597376387e-08,0.3740056272130874
2.9263370332996972e-08,0.37368384561255286
3.0272452068617557e-08,0.3733336386219383
3.128153380423814e-08,0.3729581922075449
3.2290615539858726e-08,0.37256050825853615
3.3299697275479314e-08,0.3721433930502467
3.4308779011099896e-08,0.37170944641049025
3.5317860746720484e-08,0.37126105167384044
3.6326942482341065e-08,0.3708003665056743
3.7336024217961653e-08,0.3703293146733716
3.8345105953582235e-08,0.3698495788364664
3.935418768920282e-08,0.369362594420793
4.0363269424823404e-08,0.3688695446338247
4.137235116044399e-08,0.3683713566695604
4.238143289606458e-08,0.3678686991416085
4.339051463168516e-08,0.3673619807726759
4.439959636730575e-08,0.3668513503576889
4.540867810292633e-08,0.36633669800641055
4.641775983854692e-08,0.3658176576598963
4.74268415741675e-08,0.365293610863629
4.843592330978809e-08,0.36476369176892165
4.944500504540868e-08,0.36422679332334335
5.045408678102926e-08,0.36368157460071937
5.146316851664985e-08,0.3631264692118399
5.247225025227043e-08,0.36255969472852567
5.3481331987891016e-08,0.3619792630462756
5.44904137235116e-08,0.36138299160446125
5.5499495459132186e-08,0.3607685153779807
5.6508577194752774e-08,0.36013329955049533
5.7517658930373355e-08,0.3594746527768604
5.8526740665993944e-08,0.35878974094106897
5.9535822401614525e-08,0.3580756013159592
6.054490413723511e-08,0.35732915703197354
6.15539858728557e-08,0.3565472317643539
6.256306760847628e-08,0.35572656455117696
6.357214934409687e-08,0.35486382465848304
6.458123107971745e-08,0.35395562641329803
6.559031281533803e-08,0.35299854393046853
6.659939455095863e-08,0.3519891256648028
6.760847628657921e-08,0.35092390872590634
6.861755802219979e-08,0.34979943289921006
6.962663975782037e-08,0.34861225432290477
7.063572149344097e-08,0.34735895877670736
7.164480322906155e-08,0.34603617454453905
7.265388496468213e-08,0.34464058481915866
7.366296670030273e-08,0.34316893962258727
7.467204843592331e-08,0.3416180672216488
7.568113017154389e-08,0.33998488502315954
7.669021190716447e-08,0.33826640993816826
7.769929364278506e-08,0.3364597682091855
7.870837537840565e-08,0.3345622046985103
7.971745711402623e-08,0.3325710916396006
8.072653884964681e-08,0.3304839368569277
8.17356205852674e-08,0.3282983914629375
8.274470232088798e-08,0.3260122570436153
8.375378405650857e-08,0.3236234923467792
8.476286579212916e-08,0.3211302194896036
8.577194752774974e-08,0.3185307297040648
8.678102926337032e-08,0.31582348864103543
8.77901109989909e-08,0.3130071412556711
8.87991927346115e-08,0.3100805162985966
8.980827447023208e-08,0.3070426304392392
9.081735620585266e-08,0.30389269204954533
9.182643794147326e-08,0.30063010467831713
9.283551967709384e-08,0.2972544702485508
9.384460141271442e-08,0.29376559201258384
9.4853683148335e-08,0.2901634773025784
9.58627648839556e-08,0.286448340117035
9.687184661957618e-08,0.28262060358771923
9.788092835519676e-08,0.2786809023757377
9.889001009081735e-08,0.27463008505067427
9.989909182643794e-08,0.27046921651285566
1.0090817356205852e-07,0.26619958052621073
1.019172552976791e-07,0.26182268243802276
1.029263370332997e-07,0.25734025217255685
1.0393541876892028e-07,0.25275424759836673
1.0494450050454086e-07,0.2480668583846171
1.0595358224016145e-07,0.2432805104805327
1.0696266397578203e-07,0.23839787137487026
1.0797174571140261e-07,0.23342185631999324
1.089808274470232e-07,0.22835563573888923
1.0998990918264379e-07,0.2232026440746481
1.1099899091826437e-07,0.21796659039238028
1.1200807265388495e-07,0.21265147110542637
1.1301715438950555e-07,0.20726158527382035
1.1402623612512613e-07,0.2018015530167648
1.1503531786074671e-07,0.1962763376966785
1.1604439959636729e-07,0.19069127267561004
1.1705348133198789e-07,0.18505209362210354
1.1806256306760847e-07,0.17936497756618555
1.1907164480322905e-07,0.1736365901718904
1.2008072653884963e-07,0.16787414303241288
1.2108980827447023e-07,0.16208546320598297
1.2209889001009082e-07,0.1562790777153555
1.231079717457114e-07,0.15046431634428817
1.2411705348133198e-07,0.14465143679035036
1.2512613521695255e-07,0.13885177707388516
1.2613521695257315e-07,0.1330779410337191
1.2714429868819374e-07,0.12734402369141448
1.281533804238143e-07,0.12166588408355626
1.291624621594349e-07,0.11606147354292755
1.301715438950555e-07,0.11055122679836635
1.3118062563067607e-07,0.10515852069033466
1.3218970736629666e-07,0.09991019915705646
1.3319878910191726e-07,0.09483715091763606
1.3420787083753783e-07,0.08997490432759875
1.3521695257315842e-07,0.08536416760965992
1.36226034308779e-07,0.08105118771559106
1.3723511604439958e-07,0.07708772683183275
1.3824419778002018e-07,0.07353037236312022
1.3925327951564075e-07,0.07043883659392092
1.4026236125126134e-07,0.06787293023609618
1.4127144298688194e-07,0.0658880965487384
1.422805247225025e-07,0.06452982680836805
1.432896064581231e-07,0.06382787203464282
1.442986881937437e-07,0.06379164697393072
1.4530776992936426e-07,0.06440821190060982
1.4631685166498486e-07,0.06564353598235967
1.4732593340060545e-07,0.0674466689595652
1.4833501513622602e-07,0.06975556850238475
1.4934409687184661e-07,0.07250308660122835
1.5035317860746718e-07,0.07562198300381957
1.5136226034308778e-07,0.0790484517044091
1.5237134207870837e-07,0.08272417244822422
1.5338042381432894e-07,0.08659718706665907
1.5438950554994953e-07,0.09062197621045913
1.5539858728557013e-07,0.09475906610063296
1.564076690211907e-07,0.09897440647784987
1.574167507568113e-07,0.10323867511726743
1.5842583249243189e-07,0.10752659822182224
1.5943491422805245e-07,0.1118163314513291
1.6044399596367305e-07,0.11608891904755471
1.6145307769929362e-07,0.12032783320309579
1.624621594349142e-07,0.12451858809987908
1.634712411705348e-07,0.12864841979599217
1.6448032290615538e-07,0.1327060223545117
1.6548940464177597e-07,0.1366813310658246
1.6649848637739656e-07,0.14056534461618495
1.6750756811301713e-07,0.14434997922017415
1.6851664984863773e-07,0.14802794887158702
1.6952573158425832e-07,0.15159266689012352
1.705348133198789e-07,0.15503816482119168
1.7154389505549948e-07,0.15835902548294514
1.7255297679112008e-07,0.16155032756139126
1.7356205852674065e-07,0.1646075996487446
1.7457114026236124e-07,0.16752678202036375
1.755802219979818e-07,0.17030419476837255
1.765893037336024e-07,0.17293651116994208
1.77598385469223e-07,0.1754207353774123
1.7860746720484357e-07,0.17775418368594761
1.7961654894046416e-07,0.17993446877041888
1.8062563067608476e-07,0.18195948639316054
1.8163471241170533e-07,0.18382740417343205
1.8264379414732592e-07,0.18553665208195602
1.8365287588294652e-07,0.18708591438313732
1.8466195761856708e-07,0.18847412279612127
1.8567103935418768e-07,0.1897004506858402
1.8668012108980827e-07,0.19076430812829118
1.8768920282542884e-07,0.19166533772185063
1.8869828456104944e-07,0.1924034110395167
1.8970736629667e-07,0.1929786256364796
1.907164480322906e-07,0.19339130254402556
1.917255297679112e-07,0.19364198419509634
1.9273461150353176e-07,0.19373143273928284
1.9374369323915236e-07,0.19366062871605202
1.9475277497477295e-07,0.19343077006489837
1.9576185671039352e-07,0.19304327146016606
1.9677093844601411e-07,0.19249976396671142
1.977800201816347e-07,0.19180209502062512
1.9878910191725528e-07,0.19095232874703782
1.9979818365287587e-07,0.18995274663479458
2.0080726538849644e-07,0.18880584859564034
2.0181634712411703e-07,0.18751435444365785
2.0282542885973763e-07,0.18608120583916757
2.038345105953582e-07,0.18450956875028493
2.048435923309788e-07,0.18280283649492013
2.058526740665994e-07,0.18096463343635855
2.0686175580221996e-07,0.17899881941672852
2.0787083753784055e-07,0.17690949502475772
2.0887991927346114e-07,0.1747010078072794
2.098890010090817e-07,0.1723779595479591
2.108980827447023e-07,0.1699452147516261
2.119071644803229e-07,0.16740791048821094
2.1291624621594347e-07,0.1647714677662756
2.1392532795156407e-07,0.16204160462196057
2.1493440968718463e-07,0.15922435112395136
2.1594349142280523e-07,0.15632606650755268
2.1695257315842582e-07,0.15335345865922195
2.179616548940464e-07,0.15031360617432735
2.1897073662966699e-07,0.1472139832016368
2.1997981836528758e-07,0.144062487262966
2.2098890010090815e-07,0.1408674701884186
2.2199798183652874e-07,0.13763777222728524
2.2300706357214934e-07,0.13438275926948895
2.240161453077699e-07,0.13111236292645118
2.250252270433905e-07,0.1278371229532586
2.260343087790111e-07,0.12456823112162213
2.2704339051463166e-07,0.12131757514698784
2.2805247225025226e-07,0.11809778060271782
2.2906155398587283e-07,0.1149222478902767
2.3007063572149342e-07,0.11180518025578108
2.3107971745711402e-07,0.10876159754843383
2.3208879919273458e-07,0.10580732894008207
2.3309788092835518e-07,0.10295897626232667
2.3410696266397577e-07,0.1002338381521445
2.3511604439959634e-07,0.097649784131093
2.3612512613521694e-07,0.09522506751629672
2.3713420787083753e-07,0.09297806723972762
2.381432896064581e-07,0.0909269518631263
2.391523713420787e-07,0.08908926486128396
2.4016145307769926e-07,0.08748143882611034
2.411705348133199e-07,0.08611825721985604
2.4217961654894045e-07,0.08501229440368424
2.43188698284561e-07,0.08417337567388854
2.4419778002018164e-07,0.08360810610044266
2.452068617558022e-07,0.08331951732239005
2.462159434914228e-07,0.08330687345863381
2.4722502522704335e-07,0.08356566129123637
2.4823410696266397e-07,0.08408776852068588
2.4924318869828454e-07,0.08486183152906193
2.502522704339051e-07,0.08587371542809355
2.512613521695257e-07,0.08710707777222362
2.522704339051463e-07,0.08854396457799858
2.5327951564076686e-07,0.09016539232713527
2.542885973763875e-07,0.09195187996199404
2.5529767911200805e-07,0.09388390747934446
2.563067608476286e-07,0.09594228993811922
2.5731584258324924e-07,0.0981084657638447
2.583249243188698e-07,0.1003647053872565
2.593340060544904e-07,0.10269425051077466
2.60343087790111e-07,0.10508139613772556
2.6135216952573157e-07,0.10751152759213868
2.6236125126135213e-07,0.10997112375263583
2.6337033299697276e-07,0.11244773615409788
2.643794147325933e-07,0.11492995185612023
2.653884964682139e-07,0.11740734627878667
2.663975782038345e-07,0.11987043069503554
2.674066599394551e-07,0.12231059779921334
2.6841574167507565e-07,0.124720067749436
2.6942482341069627e-07,0.12709183628671455
2.7043390514631684e-07,0.1294196259339119
2.714429868819374e-07,0.13169784083702352
2.72452068617558e-07,0.1339215254964219
2.734611503531786e-07,0.13608632741729632
2.7447023208879917e-07,0.13818846356231476
2.7547931382441973e-07,0.14022469039615565
2.7648839556004035e-07,0.14219227725595104
2.774974772956609e-07,0.1440889827524418
2.785065590312815e-07,0.14591303389521743
2.795156407669021e-07,0.14766310763557586
2.805247225025227e-07,0.14933831452778318
2.8153380423814325e-07,0.15093818422062982
2.8254288597376387e-07,0.1524626525039796
2.8355196770938444e-07,0.1539120496479805
2.84561049445005e-07,0.15528708978476935
2.8557013118062563e-07,0.15658886109329587
2.865792129162462e-07,0.15781881655697214
2.8758829465186676e-07,0.15897876507115194
2.885973763874874e-07,0.1600708626830014
2.8960645812310795e-07,0.16109760375032248
2.906155398587285e-07,0.16206181180863785
2.9162462159434914e-07,0.16296662993769967
2.926337033299697e-07,0.1638155104200313
2.936427850655903e-07,0.16461220348569827
2.946518668012109e-07,0.1653607449398448
2.9566094853683147e-07,0.1660654424733534
2.9667003027245204e-07,0.16673086046303015
2.976791120080726e-07,0.16736180307682808
2.9868819374369323e-07,0.1679632955126193
2.996972754793138e-07,0.1685405632167795
3.0070635721493436e-07,0.16909900895214217
3.01715438950555e-07,0.16964418761442365
3.0272452068617555e-07,0.17018177873256377
3.037336024217961e-07,0.17071755663189014
3.0474268415741674e-07,0.17125735828960076
3.057517658930373e-07,0.1718070489694343
3.067608476286579e-07,0.17237248578572187
3.077699293642785e-07,0.17295947941501746
3.0877901109989907e-07,0.1735737542443492
3.0978809283551964e-07,0.17422090731648973
3.1079717457114026e-07,0.17490636650173783
3.118062563067608e-07,0.17563534838936692
3.128153380423814e-07,0.17641281644680382
3.13824419778002e-07,0.17724344003738515
3.148335015136226e-07,0.1781315549150655
3.1584258324924315e-07,0.17908112582407598
3.1685166498486377e-07,0.18009571182129072
3.1786074672048434e-07,0.181178434907984
3.188698284561049e-07,0.18233195250578269
3.1987891019172553e-07,0.18355843424025142
3.208879919273461e-07,0.18485954340705144
3.2189707366296667e-07,0.1862364233934707
3.2290615539858723e-07,0.1876896892166196
3.2391523713420786e-07,0.189219424223534
3.249243188698284e-07,0.1908251818829307
3.25933400605449e-07,0.19250599248828495
3.269424823410696e-07,0.19426037449177677
3.279515640766902e-07,0.19608635010213962
3.2896064581231075e-07,0.19798146470937988
3.2996972754793137e-07,0.19994280964738997
3.3097880928355194e-07,0.2019670477723165
3.319878910191725e-07,0.20405044131976433
3.3299697275479313e-07,0.20618888150625428
3.340060544904137e-07,0.20837791935783623
3.3501513622603427e-07,0.21061279727892834
3.360242179616549e-07,0.21288848091457044
3.3703329969727545e-07,0.21519969090653843
3.38042381432896e-07,0.21754093419547033
3.3905146316851664e-07,0.21990653457479517
3.400605449041372e-07,0.22229066225572847
3.410696266397578e-07,0.22468736225410832
3.420787083753784e-07,0.22709058145802274
3.4308779011099897e-07,0.2294941942790909
3.4409687184661954e-07,0.2318920268292348
3.4510595358224016e-07,0.23427787959856924
3.4611503531786073e-07,0.23664554863856455
3.471241170534813e-07,0.23898884527809378
3.481331987891019e-07,0.24130161441866796
3.491422805247225e-07,0.2435777514695027
3.5015136226034305e-07,0.24581121799355712
3.511604439959636e-07,0.24799605614281475
3.5216952573158424e-07,0.2501264019653743
3.531786074672048e-07,0.25219649766885954
3.541876892028254e-07,0.2542007029247029
3.55196770938446e-07,0.2561335052964124
3.5620585267406657e-07,0.2579895298723836
3.5721493440968714e-07,0.25976354818043934
3.5822401614530776e-07,0.261450486457404
3.592330978809283e-07,0.26304543334280744
3.602421796165489e-07,0.26454364706150313
3.612512613521695e-07,0.26594056215569084
3.622603430877901e-07,0.2672317958227012
3.6326942482341065e-07,0.26841315391099735
3.6427850655903127e-07,0.2694806366232732
3.6528758829465184e-07,0.2704304439723019
3.662966700302724e-07,0.27125898103238677
3.6730575176589303e-07,0.27196286302688166
3.683148335015136e-07,0.2725389202903295
3.6932391523713417e-07,0.27298420314230876
3.703329969727548e-07,0.27329598670910915
3.7134207870837536e-07,0.2734717757288691
3.723511604439959e-07,0.2735093093758324
3.7336024217961655e-07,0.2734065661399075
3.743693239152371e-07,0.2731617687987719
3.753784056508577e-07,0.2727733895213706
3.7638748738647825e-07,0.27224015514381794
3.7739656912209887e-07,0.27156105266147196
3.7840565085771944e-07,0.27073533498433083
3.7941473259334e-07,0.26976252700691983
3.8042381432896063e-07,0.26864243204858085
3.814328960645812e-07,0.26737513872551105
3.8244197780020177e-07,0.26596102832215557
3.834510595358224e-07,0.2644007827366051
3.8446014127144296e-07,0.26269539308258466
3.854692230070635e-07,0.26084616903944385
3.8647830474268415e-07,0.25885474905130856
3.874873864783047e-07,0.25672311148722776
3.884964682139253e-07,0.2544535868857183
3.895055499495459e-07,0.2520488714194787
3.9051463168516647e-07,0.24951204172908312
3.9152371342078704e-07,0.2468465712879053
3.9253279515640766e-07,0.24405634847398022
3.9354187689202823e-07,0.24114569653741555
3.945509586276488e-07,0.2381193956634701
3.955600403632694e-07,0.234982707340354
3.9656912209889e-07,0.2317414012455573
3.9757820383451055e-07,0.2284017848628275
3.985872855701312e-07,0.22497073603084244
3.9959636730575174e-07,0.22145573860014442
4.006054490413723e-07,0.2178649213318474
4.016145307769929e-07,0.21420710010319513
4.026236125126135e-07,0.21049182338273453
4.0363269424823407e-07,0.20672942079083367
4.0464177598385464e-07,0.20293105435648306
4.0565085771947526e-07,0.19910877180307568
4.0665993945509583e-07,0.19527556082634878
4.076690211907164e-07,0.19144540284749795
4.08678102926337e-07,0.18763332411445158
4.096871846619576e-07,0.1838554412682928
4.1069626639757815e-07,0.18012899758162876
4.117053481331988e-07,0.1764723850181389
4.1271442986881934e-07,0.17290514608952176
4.137235116044399e-07,0.16944794826737072
4.1473259334006053e-07,0.16612252256558105
4.157416750756811e-07,0.1629515570327895
4.1675075681130167e-07,0.1599585355484027
4.177598385469223e-07,0.15716751283478003
4.1876892028254286e-07,0.15460281835939366
4.197780020181634e-07,0.1522886851620456
4.2078708375378405e-07,0.15024880484046468
4.217961654894046e-07,0.1485058169442678
4.228052472250252e-07,0.14708074944717908
4.238143289606458e-07,0.14599243588152946
4.2482341069626637e-07,0.14525694273807296
4.2583249243188694e-07,0.14488704617155618
4.268415741675075e-07,0.14489179828870669
4.2785065590312813e-07,0.1452762192553668
4.288597376387487e-07,0.14604114205083138
4.2986881937436927e-07,0.14718322302101033
4.308779011099899e-07,0.14869511558233656
4.3188698284561046e-07,0.15056578918714555
4.32896064581231e-07,0.15278096349891662
4.3390514631685165e-07,0.15532362036541825
4.349142280524722e-07,0.1581745541958272
4.359233097880928e-07,0.16131292419993978
4.369323915237134e-07,0.1647167783003775
4.3794147325933397e-07,0.16836352672870114
4.3895055499495454e-07,0.17223035181849866
4.3995963673057516e-07,0.17629454815328374
4.4096871846619573e-07,0.18053379333918354
4.419778002018163e-07,0.1849263540190896
4.429868819374369e-07,0.18945123441756087
4.439959636730575e-07,0.1940882759834997
4.4500504540867806e-07,0.19881821693165141
4.460141271442987e-07,0.20362272001713236
4.4702320887991925e-07,0.20848437599977984
4.480322906155398e-07,0.2133866891884143
4.4904137235116043e-07,0.218314050352663
4.50050454086781e-07,0.2232517012481227
4.5105953582240157e-07,0.22818569407194872
4.520686175580222e-07,0.23310284837236103
4.5307769929364276e-07,0.23799070727921134
4.5408678102926333e-07,0.24283749439421237
4.550958627648839e-07,0.24763207226351586
4.561049445005045e-07,0.2523639030348106
4.571140262361251e-07,0.2570230116590804
4.5812310797174565e-07,0.26159995181816054
4.591321897073663e-07,0.26608577462990096
4.6014127144298684e-07,0.27047200009182465
4.611503531786074e-07,0.2747505911625779
4.6215943491422803e-07,0.2789139303408099
4.631685166498486e-07,0.28295479857771066
4.6417759838546917e-07,0.28686635634777835
4.651866801210898e-07,0.2906421266990938
4.6619576185671036e-07,0.2942759801068664
4.6720484359233093e-07,0.2977621209603683
4.6821392532795155e-07,0.3010950755221735
4.692230070635721e-07,0.3042696812088247
4.702320887991927e-07,0.3072810770529541
4.712411705348133e-07,0.3101246952179433
4.722502522704339e-07,0.31279625344707357
4.7325933400605444e-07,0.31529174833958973
4.7426841574167506e-07,0.31760744935598956
4.7527749747729563e-07,0.3197398934641169
4.762865792129162e-07,0.3216858803462248
4.772956609485368e-07,0.3234424680950888
4.783047426841574e-07,0.32500696933450723
