Time,Signal
0.0,0.08631895414736795
1.0090817356205852e-09,0.08618186089251854
2.0181634712411704e-09,0.08669993838841945
3.0272452068617556e-09,0.08788518338304814
4.036326942482341e-09,0.08973286575415931
5.0454086781029255e-09,0.09222284868990115
6.054490413723511e-09,0.09532235839240967
7.063572149344097e-09,0.09898954590981872
8.072653884964682e-09,0.10317714695207542
9.081735620585266e-09,0.10783570972936027
1.0090817356205851e-08,0.1129161075829281
1.1099899091826438e-08,0.11837127565692586
1.2108980827447022e-08,0.124157256342621
1.3118062563067607e-08,0.13023370394808403
1.4127144298688194e-08,0.13656400767950266
1.5136226034308778e-08,0.14311517015574507
1.6145307769929363e-08,0.14985754627930914
1.7154389505549948e-08,0.15676451576937162
1.8163471241170533e-08,0.16381213688918653
1.9172552976791117e-08,0.17097880987657324
2.0181634712411702e-08,0.17824496552690475
2.119071644803229e-08,0.18559278593142198
2.2199798183652875e-08,0.19300595921679523
2.320887991927346e-08,0.20046946718971642
2.4217961654894045e-08,0.20796940327115715
2.522704339051463e-08,0.21549281746059845
2.6236125126135214e-08,0.2230275849383133
2.72452068617558e-08,0.23056229506219963
2.8254288597376387e-08,0.23808615780205417
2.9263370332996972e-08,0.2455889249937429
3.0272452068617557e-08,0.25306082414042164
3.128153380423814e-08,0.26049250281239655
3.2290615539858726e-08,0.2678749819896141
3.3299697275479314e-08,0.27519961694722905
3.4308779011099896e-08,0.28245806450565486
3.5317860746720484e-08,0.2896422556545926
3.6326942482341065e-08,0.29674437271936754
3.7336024217961653e-08,0.3037568303712854
3.8345105953582235e-08,0.31067225989535063
3.935418768920282e-08,0.3174834962219143
4.0363269424823404e-08,0.32418356730659226
4.137235116044399e-08,0.33076568550766217
4.238143289606458e-08,0.33722324066427367
4.339051463168516e-08,0.3435497946239967
4.439959636730575e-08,0.34973907700602874
4.540867810292633e-08,0.35578498201801173
4.641775983854692e-08,0.3616815661709603
4.74268415741675e-08,0.3674230467590915
4.843592330978809e-08,0.373003800990137
4.944500504540868e-08,0.37841836566756126
5.045408678102926e-08,0.38366143733951374
5.146316851664985e-08,0.38872787284071136
5.247225025227043e-08,0.3936126901630976
5.3481331987891016e-08,0.3983110695993592
5.44904137235116e-08,0.4028183551104031
5.5499495459132186e-08,0.4071300558739158
5.6508577194752774e-08,0.41124184797628954
5.7517658930373355e-08,0.41514957621465287
5.8526740665993944e-08,0.41884925597957695
5.9535822401614525e-08,0.4223370751923536
6.054490413723511e-08,0.4256093962736301
6.15539858728557e-08,0.4286627581226969
6.256306760847628e-08,0.43149387808891926
6.357214934409687e-08,0.4340996539187309
6.458123107971745e-08,0.43647716566330075
6.559031281533803e-08,0.4386236775334715
6.659939455095863e-08,0.4405366396899012
6.760847628657921e-08,0.44221368995750465
6.861755802219979e-08,0.4436526554543467
6.962663975782037e-08,0.44485155412607724
7.063572149344097e-08,0.4458085961778415
7.164480322906155e-08,0.446522185396365
7.265388496468213e-08,0.4469909203556002
7.366296670030273e-08,0.4472135954999579
7.467204843592331e-08,0.4471892020997186
7.568113017154389e-08,0.44691692907374897
7.669021190716447e-08,0.44639616367514123
7.769929364278506e-08,0.44562649203584154
7.870837537840565e-08,0.44460769956675644
7.971745711402623e-08,0.44333977121022594
8.072653884964681e-08,0.44182289154210863
8.17356205852674e-08,0.4400574447210907
8.274470232088798e-08,0.4380440142831427
8.375378405650857e-08,0.43578338277937484
8.476286579212916e-08,0.4332765312558292
8.577194752774974e-08,0.4305246385740411
8.678102926337032e-08,0.4275290805714685
8.77901109989909e-08,0.42429142906115513
8.87991927346115e-08,0.4208134506702462
8.980827447023208e-08,0.41709710551721796
9.081735620585266e-08,0.41314454572792675
9.182643794147326e-08,0.40895811379080815
9.283551967709384e-08,0.40454034075178685
9.384460141271442e-08,0.39989394424967745
9.4853683148335e-08,0.3950218263930723
9.58627648839556e-08,0.38992707147992783
9.687184661957618e-08,0.38461294356126957
9.788092835519676e-08,0.3790828838506423
9.889001009081735e-08,0.3733405079811481
9.989909182643794e-08,0.36738960311210817
1.0090817356205852e-07,0.3612341248876118
1.019172552976791e-07,0.35487819424941247
1.029263370332997e-07,0.3483260941068599
1.0393541876892028e-07,0.341582265866778
1.0494450050454086e-07,0.33465130582643915
1.0595358224016145e-07,0.3275379614330351
1.0696266397578203e-07,0.3202471274133257
1.0797174571140261e-07,0.312783841777443
1.089808274470232e-07,0.3051532817011831
1.0998990918264379e-07,0.2973607592915027
1.1099899091826437e-07,0.28941171724041515
1.1200807265388495e-07,0.28131172437304364
1.1301715438950555e-07,0.2730664710962847
1.1402623612512613e-07,0.2646817647554167
1.1503531786074671e-07,0.2561635249071138
1.1604439959636729e-07,0.2475177785188002
1.1705348133198789e-07,0.2387506551062439
1.1806256306760847e-07,0.2298683818239468
1.1907164480322905e-07,0.22087727852653655
1.2008072653884963e-07,0.21178375282448453
1.2108980827447023e-07,0.20259429516472682
1.2209889001009082e-07,0.19331547397726218
1.231079717457114e-07,0.18395393094423018
1.2411705348133198e-07,0.17451637647110682
1.2512613521695255e-07,0.16500958547500547
1.2613521695257315e-07,0.1554403936603527
1.2714429868819374e-07,0.14581569454069354
1.281533804238143e-07,0.13614243761090666
1.291624621594349e-07,0.12642762832068308
1.301715438950555e-07,0.11667833093224425
1.3118062563067607e-07,0.1069016761322506
1.3218970736629666e-07,0.09710487676588486
1.3319878910191726e-07,0.08729525806342717
1.3420787083753783e-07,0.07748031512455075
1.3521695257315842e-07,0.06766782508086379
1.36226034308779e-07,0.05786607810222909
1.3723511604439958e-07,0.04808439462378722
1.3824419778002018e-07,0.038334432679598004
1.3925327951564075e-07,0.028634138482673547
1.4026236125126134e-07,0.019023598909852703
1.4127144298688194e-07,0.00967368196937687
1.422805247225025e-07,0.0035412497322483017
1.432896064581231e-07,0.01076307585139184
1.442986881937437e-07,0.02000137279324891
1.4530776992936426e-07,0.029347079953496436
1.4631685166498486e-07,0.03866570911843198
1.4732593340060545e-07,0.047922448336607346
1.4833501513622602e-07,0.057101072061091024
1.4934409687184661e-07,0.06619093914110613
1.5035317860746718e-07,0.07518360301480236
1.5136226034308778e-07,0.08407165877486304
1.5237134207870837e-07,0.09284827831167645
1.5338042381432894e-07,0.1015069996492036
1.5438950554994953e-07,0.11004162332987084
1.5539858728557013e-07,0.11844615856441508
1.564076690211907e-07,0.1267147943726795
1.574167507568113e-07,0.13484188407144132
1.5842583249243189e-07,0.14282193725299178
1.5943491422805245e-07,0.15064961613822975
1.6044399596367305e-07,0.15831973456485157
1.6145307769929362e-07,0.1658272585989149
1.624621594349142e-07,0.17316730815973214
1.634712411705348e-07,0.1803351592783413
1.6448032290615538e-07,0.18732624674629136
1.6548940464177597e-07,0.19413616699482192
1.6649848637739656e-07,0.2007606810967649
1.6750756811301713e-07,0.2071957178170711
1.6851664984863773e-07,0.2134373766599029
1.6952573158425832e-07,0.21948193087502643
1.705348133198789e-07,0.22532583039634402
1.7154389505549948e-07,0.23096570469245312
1.7255297679112008e-07,0.23639836551412982
1.7356205852674065e-07,0.24162080952725015
1.7457114026236124e-07,0.24663022082234434
1.755802219979818e-07,0.25142397329399413
1.765893037336024e-07,0.25599963288484
1.77598385469223e-07,0.26035495969019345
1.7860746720484357e-07,0.2644879099202533
1.7961654894046416e-07,0.2683966377177516
1.8062563067608476e-07,0.27207949682957683
1.8163471241170533e-07,0.27553504213155533
1.8264379414732592e-07,0.27876203100614955
1.8365287588294652e-07,0.2817594245733772
1.8466195761856708e-07,0.2845263887757725
1.8567103935418768e-07,0.2870622953187268
1.8668012108980827e-07,0.28936672246805895
1.8768920282542884e-07,0.29143945570718693
1.8869828456104944e-07,0.2932804882568127
1.8970736629667e-07,0.29489002146060356
1.907164480322906e-07,0.29626846504093984
1.917255297679112e-07,0.2974164372294447
1.9273461150353176e-07,0.29833476477768983
1.9374369323915236e-07,0.29902448285420524
1.9475277497477295e-07,0.29948683483472976
1.9576185671039352e-07,0.29972327199350457
1.9677093844601411e-07,0.299735453104374
1.977800201816347e-07,0.29952524396151214
1.9878910191725528e-07,0.2990947168307601
1.9979818365287587e-07,0.2984461498438498
2.0080726538849644e-07,0.29758202634922903
2.0181634712411703e-07,0.2965050342348101
2.0282542885973763e-07,0.29521806523975463
2.038345105953582e-07,0.2937242142744336
2.048435923309788e-07,0.29202677876995525
2.058526740665994e-07,0.290129258081222
2.0686175580221996e-07,0.2880353529703601
2.0787083753784055e-07,0.28574896520063425
2.0887991927346114e-07,0.28327419727466957
2.098890010090817e-07,0.2806153523550113
2.108980827447023e-07,0.2777769344098424
2.119071644803229e-07,0.2747636486321311
2.1291624621594347e-07,0.27158040218669
2.1392532795156407e-07,0.2682323053467194
2.1493440968718463e-07,0.26472467308948433
2.1594349142280523e-07,0.26106302722999924
2.1695257315842582e-07,0.25725309918210565
2.179616548940464e-07,0.25330083344830856
2.1897073662966699e-07,0.24921239195336728
2.1997981836528758e-07,0.24499415935210103
2.2098890010090815e-07,0.24065274945938192
2.2199798183652874e-07,0.23619501297000686
2.2300706357214934e-07,0.23162804665824127
2.240161453077699e-07,0.22695920427138563
2.250252270433905e-07,0.22219610935873185
2.260343087790111e-07,0.21734667030654922
2.2704339051463166e-07,0.21241909788083202
2.2805247225025226e-07,0.2074219256115791
2.2906155398587283e-07,0.20236403338388487
2.3007063572149342e-07,0.19725467462976692
2.3107971745711402e-07,0.19210350753678235
2.3208879919273458e-07,0.18692063069967232
2.3309788092835518e-07,0.18171662363155036
2.3410696266397577e-07,0.17650259251004488
2.3511604439959634e-07,0.17129022144515657
2.3612512613521694e-07,0.16609182939690428
2.3713420787083753e-07,0.16092043261155423
2.381432896064581e-07,0.15578981204466147
2.391523713420787e-07,0.15071458464470594
2.4016145307769926e-07,0.14571027651727933
2.411705348133199e-07,0.14079339479935785
2.4217961654894045e-07,0.13598149346260954
2.43188698284561e-07,0.13129322615693964
2.4419778002018164e-07,0.12674837655524807
2.452068617558022e-07,0.1223678534968777
2.462159434914228e-07,0.11817363471987638
2.4722502522704335e-07,0.11418863951976505
2.4823410696266397e-07,0.11043650800491094
2.4924318869828454e-07,0.1069412638782867
2.502522704339051e-07,0.10372684041229063
2.512613521695257e-07,0.10081645726273643
2.522704339051463e-07,0.09823185048268095
2.5327951564076686e-07,0.09599237993895812
2.542885973763875e-07,0.09411406557468177
2.5529767911200805e-07,0.09260863197267688
2.563067608476286e-07,0.0914826620994359
2.5731584258324924e-07,0.09073696757215127
2.583249243188698e-07,0.09036626808977734
2.593340060544904e-07,0.09035923622934867
2.60343087790111e-07,0.09069891240616727
2.6135216952573157e-07,0.09136344098212082
2.6236125126135213e-07,0.09232703602003363
2.6337033299697276e-07,0.0935610636411339
2.643794147325933e-07,0.09503512964394263
2.653884964682139e-07,0.09671808129208317
2.663975782038345e-07,0.09857886237325766
2.674066599394551e-07,0.10058719202495384
2.6841574167507565e-07,0.10271406415358242
2.6942482341069627e-07,0.10493208261476408
2.7043390514631684e-07,0.10721565753556261
2.714429868819374e-07,0.10954109176230269
2.72452068617558e-07,0.11188658550762084
2.734611503531786e-07,0.11423218381100529
2.7447023208879917e-07,0.11655968691819747
2.7547931382441973e-07,0.11885253910492269
2.7648839556004035e-07,0.12109570735936238
2.774974772956609e-07,0.12327555792408094
2.785065590312815e-07,0.12537973601777003
2.795156407669021e-07,0.12739705204380394
2.805247225025227e-07,0.1293173761372041
2.8153380423814325e-07,0.13113154188744458
2.8254288597376387e-07,0.13283125939502952
2.8355196770938444e-07,0.13440903738570523
2.84561049445005e-07,0.1358581138468181
2.8557013118062563e-07,0.13717239451194024
2.865792129162462e-07,0.13834639846269664
2.8758829465186676e-07,0.13937521011218
2.885973763874874e-07,0.1402544368623299
2.8960645812310795e-07,0.14098017177433259
2.906155398587285e-07,0.1415489606471916
2.9162462159434914e-07,0.14195777295906764
2.926337033299697e-07,0.1422039761849544
2.936427850655903e-07,0.14228531306051223
2.946518668012109e-07,0.14219988141416187
2.9566094853683147e-07,0.14194611623733364
2.9667003027245204e-07,0.14152277370596467
2.976791120080726e-07,0.1409289169051322
2.9868819374369323e-07,0.14016390304344514
2.996972754793138e-07,0.139227371974957
3.0070635721493436e-07,0.13811923587441025
3.01715438950555e-07,0.13683966993712338
3.0272452068617555e-07,0.1353891039983843
3.037336024217961e-07,0.13376821498940178
3.0474268415741674e-07,0.13197792016841672
3.057517658930373e-07,0.13001937108721742
3.067608476286579e-07,0.12789394827598924
3.077699293642785e-07,0.12560325665428868
3.0877901109989907e-07,0.12314912170443994
3.0978809283551964e-07,0.12053358647775829
3.1079717457114026e-07,0.11775890954643224
3.118062563067608e-07,0.11482756406836842
3.128153380423814e-07,0.11174223820428103
3.13824419778002e-07,0.10850583722361415
3.148335015136226e-07,0.10512148777026334
3.1584258324924315e-07,0.1015925449480938
3.1685166498486377e-07,0.0979226031570307
3.1786074672048434e-07,0.0941155120052646
3.188698284561049e-07,0.09017539920918677
3.1987891019172553e-07,0.08610670327937676
3.208879919273461e-07,0.08191422015991441
3.2189707366296667e-07,0.07760317014833903
3.2290615539858723e-07,0.07317929491379946
3.2391523713420786e-07,0.06864900021928041
3.249243188698284e-07,0.06401956983286344
3.25933400605449e-07,0.05929949351749309
3.269424823410696e-07,0.054498983748334395
3.279515640766902e-07,0.04963081606099795
3.2896064581231075e-07,0.044711747246445485
3.2996972754793137e-07,0.03976501305327072
3.3097880928355194e-07,0.034824945393618925
3.319878910191725e-07,0.029945972412541415
3.3299697275479313e-07,0.025221105650473395
3.340060544904137e-07,0.02082122322732512
3.3501513622603427e-07,0.017074786496355483
3.360242179616549e-07,0.01457771555137557
3.3703329969727545e-07,0.014090047445860426
3.38042381432896e-07,0.015859096532862115
3.3905146316851664e-07,0.019316614222164814
3.400605449041372e-07,0.023766252781267674
3.410696266397578e-07,0.028771921152500806
3.420787083753784e-07,0.034103583475488315
3.4308779011099897e-07,0.03963878816250689
3.4409687184661954e-07,0.045307967811793824
3.4510595358224016e-07,0.051068416727125976
3.4611503531786073e-07,0.056891838022857105
3.471241170534813e-07,0.06275810376222982
3.481331987891019e-07,0.06865195754337691
3.491422805247225e-07,0.07456118168682649
3.5015136226034305e-07,0.08047553138204357
3.511604439959636e-07,0.08638608986586613
3.5216952573158424e-07,0.09228486475729988
3.531786074672048e-07,0.098164527838292
3.541876892028254e-07,0.10401824306692811
3.55196770938446e-07,0.10983955049916144
3.5620585267406657e-07,0.11562228658555622
3.5721493440968714e-07,0.12136052869767427
3.5822401614530776e-07,0.12704855613616037
3.592330978809283e-07,0.1326808225618118
3.602421796165489e-07,0.13825193647640888
3.612512613521695e-07,0.14375664746036798
3.622603430877901e-07,0.14918983658093407
3.6326942482341065e-07,0.1545465098555941
3.6427850655903127e-07,0.15982179397472543
3.6528758829465184e-07,0.16501093370745484
3.662966700302724e-07,0.17010929056846477
3.6730575176589303e-07,0.17511234243243404
3.683148335015136e-07,0.18001568386097658
3.6932391523713417e-07,0.18481502696372165
3.703329969727548e-07,0.18950620265686366
3.7134207870837536e-07,0.19408516221344096
3.723511604439959e-07,0.19854797902278276
3.7336024217961655e-07,0.2028908504941072
3.743693239152371e-07,0.20711010005263158
3.753784056508577e-07,0.21120217918687484
3.7638748738647825e-07,0.21516366951383728
3.7739656912209887e-07,0.2189912848350133
3.7840565085771944e-07,0.22268187316114674
3.7941473259334e-07,0.22623241868758628
3.8042381432896063e-07,0.22964004370525734
3.814328960645812e-07,0.23290201043484046
3.8244197780020177e-07,0.23601572277383398
3.834510595358224e-07,0.23897872794791541
3.8446014127144296e-07,0.24178871805944424
3.854692230070635e-07,0.24444353152717355
3.8647830474268415e-07,0.246941154412255
3.874873864783047e-07,0.24927972162651607
3.884964682139253e-07,0.2514575180197562
3.895055499495459e-07,0.25347297934349455
3.9051463168516647e-07,0.25532469308920647
3.9152371342078704e-07,0.2570113991996424
3.9253279515640766e-07,0.25853199065233196
3.9354187689202823e-07,0.25988551391484943
3.945509586276488e-07,0.261071169271874
3.955600403632694e-07,0.2620883110245043
3.9656912209889e-07,0.26293644756271806
3.9757820383451055e-07,0.2636152413122882
3.985872855701312e-07,0.2641245085578812
3.9959636730575174e-07,0.2644642191444994
4.006054490413723e-07,0.2646344960598746
4.016145307769929e-07,0.26463561490086246
4.026236125126135e-07,0.26446800322739417
4.0363269424823407e-07,0.26413223980803824
4.0464177598385464e-07,0.2636290537617851
4.0565085771947526e-07,0.26295932360126034
4.0665993945509583e-07,0.2621240761832284
4.076690211907164e-07,0.26112448557295515
4.08678102926337e-07,0.2599618718297983
4.096871846619576e-07,0.25863769972227174
4.1069626639757815e-07,0.25715357738181727
4.117053481331988e-07,0.2555112549056322
4.1271442986881934e-07,0.253712622920164
4.137235116044399e-07,0.25175971111832035
4.1473259334006053e-07,0.2496546867850834
4.157416750756811e-07,0.24739985332811348
4.1675075681130167e-07,0.2449976488321067
4.177598385469223e-07,0.2424506446582
4.1876892028254286e-07,0.23976154411266584
4.197780020181634e-07,0.23693318121257428
4.2078708375378405e-07,0.23396851958013845
4.217961654894046e-07,0.2308706515022079
4.228052472250252e-07,0.22764279719697883
4.238143289606458e-07,0.224288304336646
4.2482341069626637e-07,0.22081064788262222
4.2583249243188694e-07,0.21721343029939064
4.268415741675075e-07,0.21350038222436377
4.2785065590312813e-07,0.2096753636846963
4.288597376387487e-07,0.20574236596838372
4.2986881937436927e-07,0.20170551427678776
4.308779011099899e-07,0.19756907130978651
4.3188698284561046e-07,0.1933374419640349
4.32896064581231e-07,0.18901517936062984
4.3390514631685165e-07,0.1846069924623598
4.349142280524722e-07,0.18011775559470408
4.359233097880928e-07,0.17555252025135124
4.369323915237134e-07,0.17091652964741644
4.3794147325933397e-07,0.16621523658577936
4.3895055499495454e-07,0.1614543253291211
4.3995963673057516e-07,0.15663973832868233
4.4096871846619573e-07,0.15177770885845682
4.419778002018163e-07,0.14687480085035068
4.429868819374369e-07,0.14193795753379115
4.439959636730575e-07,0.1369745608667016
4.4500504540867806e-07,0.13199250422011477
4.460141271442987e-07,0.12700028136360672
4.4702320887991925e-07,0.12200709550967716
4.480322906155398e-07,0.11702299302247665
4.4904137235116043e-07,0.11205902737399787
4.50050454086781e-07,0.10712745999825173
4.5105953582240157e-07,0.10224200574149508
4.520686175580222e-07,0.0974181313966449
4.5307769929364276e-07,0.09267341587691524
4.5408678102926333e-07,0.08802797907249194
4.550958627648839e-07,0.0835049818582551
4.561049445005045e-07,0.0791311896389732
4.571140262361251e-07,0.07493757250567358
4.5812310797174565e-07,0.07095988145991604
4.591321897073663e-07,0.06723908671267
4.6014127144298684e-07,0.06382148802213355
4.611503531786074e-07,0.060758215960229886
4.6215943491422803e-07,0.05810376768813067
4.631685166498486e-07,0.05591322875256169
4.6417759838546917e-07,0.0542380229640467
4.651866801210898e-07,0.05312048131354881
4.6619576185671036e-07,0.052588162361388725
4.6720484359233093e-07,0.052649386246464355
4.6821392532795155e-07,0.05329142569614848
4.692230070635721e-07,0.054482030327276186
4.702320887991927e-07,0.056173788431752567
4.712411705348133e-07,0.05830994133872392
4.722502522704339e-07,0.06083011096075502
4.7325933400605444e-07,0.06367487641808307
4.7426841574167506e-07,0.06678880755709446
4.7527749747729563e-07,0.0701220740060657
4.762865792129162e-07,0.07363098716828136
4.772956609485368e-07,0.07727786171609496
