Time,Signal
0.0,0.2773495465505918
1.0090817356205852e-09,0.28411243315947804
2.0181634712411704e-09,0.2899509126139348
3.0272452068617556e-09,0.29484192813288435
4.036326942482341e-09,0.29876587935457755
5.0454086781029255e-09,0.30170665209758485
6.054490413723511e-09,0.303651653112141
7.063572149344097e-09,0.30459184679288
8.072653884964682e-09,0.30452179203699664
9.081735620585266e-09,0.30343967842287245
1.0090817356205851e-08,0.3013473617792373
1.1099899091826438e-08,0.2982504001198262
1.2108980827447022e-08,0.2941580919383079
1.3118062563067607e-08,0.28908352011614175
1.4127144298688194e-08,0.28304360635588
1.5136226034308778e-08,0.2760591833516106
1.6145307769929363e-08,0.2681550952086365
1.7154389505549948e-08,0.25936034149759707
1.8163471241170533e-08,0.24970828770136427
1.9172552976791117e-08,0.23923697622710252
2.0181634712411702e-08,0.22798959023223414
2.119071644803229e-08,0.21601515181757208
2.2199798183652875e-08,0.2033695848220738
2.320887991927346e-08,0.19011735541661512
2.4217961654894045e-08,0.17633404886613066
2.522704339051463e-08,0.1621105016657205
2.6236125126135214e-08,0.14755958852359494
2.72452068617558e-08,0.13282766403440774
2.8254288597376387e-08,0.11811434850863521
2.9263370332996972e-08,0.10370738077974821
3.0272452068617557e-08,0.09004375840147698
3.128153380423814e-08,0.07780987010522997
3.2290615539858726e-08,0.06806534383728488
3.3299697275479314e-08,0.06224040154129599
3.4308779011099896e-08,0.06164097667305974
3.5317860746720484e-08,0.0665130591155129
3.6326942482341065e-08,0.07584357627693333
3.7336024217961653e-08,0.08820972166574743
3.8345105953582235e-08,0.10245989743851511
3.935418768920282e-08,0.11782581490215605
4.0363269424823404e-08,0.13381659868576518
4.137235116044399e-08,0.1501111275992835
4.238143289606458e-08,0.16648859856977327
4.339051463168516e-08,0.1827883734205257
4.439959636730575e-08,0.19888718246035772
4.540867810292633e-08,0.21468601731725537
4.641775983854692e-08,0.23010242250361226
4.74268415741675e-08,0.24506585252354984
4.843592330978809e-08,0.25951481564990897
4.944500504540868e-08,0.2733950881139894
5.045408678102926e-08,0.28665858684702766
5.146316851664985e-08,0.29926265738830093
5.247225025227043e-08,0.31116962926017416
5.3481331987891016e-08,0.3223465469014245
5.44904137235116e-08,0.3327650176214718
5.5499495459132186e-08,0.3424011384888981
5.6508577194752774e-08,0.35123547688715023
5.7517658930373355e-08,0.3592530876739597
5.8526740665993944e-08,0.3664435552263673
5.9535822401614525e-08,0.3728010521852831
6.054490413723511e-08,0.37832440906388365
6.15539858728557e-08,0.38301719043859983
6.256306760847628e-08,0.3868877744358402
6.357214934409687e-08,0.3899494328033316
6.458123107971745e-08,0.39222040909205946
6.559031281533803e-08,0.3937239924114793
6.659939455095863e-08,0.3944885838656478
6.760847628657921e-08,0.3945477521183847
6.861755802219979e-08,0.3939402735436214
6.962663975782037e-08,0.3927101510560773
7.063572149344097e-08,0.39090660395020904
7.164480322906155e-08,0.38858401887623195
7.265388496468213e-08,0.3858018494538183
7.366296670030273e-08,0.3826244490229439
7.467204843592331e-08,0.37912081779952317
7.568113017154389e-08,0.3753642425100285
7.669021190716447e-08,0.3714318038644004
7.769929364278506e-08,0.3674037256402302
7.870837537840565e-08,0.3633625395682812
7.971745711402623e-08,0.35939204369518946
8.072653884964681e-08,0.35557603959223216
8.17356205852674e-08,0.3519968466610559
8.274470232088798e-08,0.3487336103304824
8.375378405650857e-08,0.3458604446665824
8.476286579212916e-08,0.34344447698833563
8.577194752774974e-08,0.3415438890691818
8.678102926337032e-08,0.34020607161064675
8.77901109989909e-08,0.33946602050462577
8.87991927346115e-08,0.3393451002942917
8.980827447023208e-08,0.3398502798225595
9.081735620585266e-08,0.34097390844829967
9.182643794147326e-08,0.3426940533421408
9.283551967709384e-08,0.34497536704252546
9.384460141271442e-08,0.347770408366594
9.4853683148335e-08,0.3510213062528464
9.58627648839556e-08,0.35466163932078687
9.687184661957618e-08,0.35861840419142127
9.788092835519676e-08,0.362813959947552
9.889001009081735e-08,0.367167859593019
9.989909182643794e-08,0.3715985066477088
1.0090817356205852e-07,0.3760246015486737
1.019172552976791e-07,0.38036636523365375
1.029263370332997e-07,0.3845465446357932
1.0393541876892028e-07,0.3884912165745707
1.0494450050454086e-07,0.3921304132951798
1.0595358224016145e-07,0.3953985957193358
1.0696266397578203e-07,0.3982350004561777
1.0797174571140261e-07,0.40058388480950585
1.089808274470232e-07,0.4023946912327055
1.0998990918264379e-07,0.4036221495280923
1.1099899091826437e-07,0.40422633196458796
1.1200807265388495e-07,0.40417267363733295
1.1301715438950555e-07,0.4034319679388347
1.1402623612512613e-07,0.40198034499929775
1.1503531786074671e-07,0.39979923938242
1.1604439959636729e-07,0.39687535216624287
1.1705348133198789e-07,0.3932006117617475
1.1806256306760847e-07,0.38877213739134847
1.1907164480322905e-07,0.3835922090397559
1.2008072653884963e-07,0.3776682478875281
1.2108980827447023e-07,0.37101281174465556
1.2209889001009082e-07,0.3636436108365395
1.231079717457114e-07,0.35558355049557483
1.2411705348133198e-07,0.34686080893634214
1.2512613521695255e-07,0.33750896041992107
1.2613521695257315e-07,0.32756715683925985
1.2714429868819374e-07,0.3170803841868256
1.281533804238143e-07,0.3060998145846423
1.291624621594349e-07,0.2946832795806502
1.301715438950555e-07,0.28289589607692245
1.3118062563067607e-07,0.27081088198805503
1.3218970736629666e-07,0.25851060315836316
1.3319878910191726e-07,0.24608789327750016
1.3420787083753783e-07,0.2336476788003461
1.3521695257315842e-07,0.22130891064591002
1.36226034308779e-07,0.209206735524543
1.3723511604439958e-07,0.1974947034362267
1.3824419778002018e-07,0.18634656530275645
1.3925327951564075e-07,0.17595682866828694
1.4026236125126134e-07,0.16653871499756112
1.4127144298688194e-07,0.15831763637734556
1.422805247225025e-07,0.15151817987637375
1.432896064581231e-07,0.14634355138581306
1.442986881937437e-07,0.14294912372632346
1.4530776992936426e-07,0.14141575515039445
1.4631685166498486e-07,0.14173156982143356
1.4732593340060545e-07,0.14378971976503743
1.4833501513622602e-07,0.1474035805493738
1.4934409687184661e-07,0.15233360210914076
1.5035317860746718e-07,0.15831661205261294
1.5136226034308778e-07,0.16509010907941665
1.5237134207870837e-07,0.17240834494563137
1.5338042381432894e-07,0.18005060603216677
1.5438950554994953e-07,0.18782380509112442
1.5539858728557013e-07,0.19556166265090014
1.564076690211907e-07,0.20312222791641962
1.574167507568113e-07,0.2103848476324885
1.5842583249243189e-07,0.21724718590421993
1.5943491422805245e-07,0.2236225705152493
1.6044399596367305e-07,0.22943775524042773
1.6145307769929362e-07,0.23463109385689956
1.624621594349142e-07,0.23915108125673734
1.634712411705348e-07,0.24295520505260612
1.6448032290615538e-07,0.24600905264237213
1.6548940464177597e-07,0.2482856259335287
1.6649848637739656e-07,0.24976482486463383
1.6750756811301713e-07,0.2504330697152574
1.6851664984863773e-07,0.2502830403188459
1.6952573158425832e-07,0.24931351759967543
1.705348133198789e-07,0.24752931953086968
1.7154389505549948e-07,0.24494132996831441
1.7255297679112008e-07,0.2415666252349361
1.7356205852674065e-07,0.23742871023697013
1.7457114026236124e-07,0.23255788375447492
1.755802219979818e-07,0.22699176185571723
1.765893037336024e-07,0.22077599961000602
1.77598385469223e-07,0.21396526472451485
1.7860746720484357e-07,0.20662453221819807
1.7961654894046416e-07,0.19883078535047083
1.8062563067608476e-07,0.1906752205917466
1.8163471241170533e-07,0.1822660536669574
1.8264379414732592e-07,0.17373198897740966
1.8365287588294652e-07,0.1652263062169296
1.8466195761856708e-07,0.15693126665906634
1.8567103935418768e-07,0.14906204583250984
1.8668012108980827e-07,0.14186855724139197
1.8768920282542884e-07,0.1356323704145949
1.8869828456104944e-07,0.13065489681915743
1.8970736629667e-07,0.1272333540802439
1.907164480322906e-07,0.12562452596273707
1.917255297679112e-07,0.12600351368921667
1.9273461150353176e-07,0.12843178211969652
1.9374369323915236e-07,0.13284859813584574
1.9475277497477295e-07,0.13908952341938355
1.9576185671039352e-07,0.14692239997166415
1.9677093844601411e-07,0.15608576015239561
1.977800201816347e-07,0.16631872684705656
1.9878910191725528e-07,0.17737901806525525
1.9979818365287587e-07,0.18905089963171662
2.0080726538849644e-07,0.2011466271107814
2.0181634712411703e-07,0.213504490317789
2.0282542885973763e-07,0.22598552033372793
2.038345105953582e-07,0.23846999274127215
2.048435923309788e-07,0.25085425036918846
2.058526740665994e-07,0.2630480271306069
2.0686175580221996e-07,0.2749722868548201
2.0787083753784055e-07,0.28655752085819636
2.0887991927346114e-07,0.29774242704101145
2.098890010090817e-07,0.30847289460189314
2.108980827447023e-07,0.3187012282718458
2.119071644803229e-07,0.3283855578007978
2.1291624621594347e-07,0.337489389532688
2.1392532795156407e-07,0.3459812663342336
2.1493440968718463e-07,0.35383450975908354
2.1594349142280523e-07,0.36102702431509015
2.1695257315842582e-07,0.36754114833456303
2.179616548940464e-07,0.37336353950040285
2.1897073662966699e-07,0.3784850857920433
2.1997981836528758e-07,0.38290083467553887
2.2098890010090815e-07,0.38660993492043333
2.2199798183652874e-07,0.3896155865944307
2.2300706357214934e-07,0.39192499564837296
2.240161453077699e-07,0.3935493301185248
2.250252270433905e-07,0.39450367538263775
2.260343087790111e-07,0.3948069861387091
2.2704339051463166e-07,0.3944820328480057
2.2805247225025226e-07,0.39355534030583034
2.2906155398587283e-07,0.39205711577794977
2.3007063572149342e-07,0.3900211637674235
2.3107971745711402e-07,0.38748478395495145
2.3208879919273458e-07,0.38448864818780176
2.3309788092835518e-07,0.381076651587244
2.3410696266397577e-07,0.37729573192475074
2.3511604439959634e-07,0.37319565042640107
2.3612512613521694e-07,0.3688287261758494
2.3713420787083753e-07,0.36424951541146156
2.381432896064581e-07,0.35951442641410036
2.391523713420787e-07,0.35468126057496047
2.4016145307769926e-07,0.3498086708884303
2.411705348133199e-07,0.3449555308444691
2.4217961654894045e-07,0.34018020981827
2.43188698284561e-07,0.3355397558438334
2.4419778002018164e-07,0.33108899325412045
2.452068617558022e-07,0.32687955098292437
2.462159434914228e-07,0.3229588469254196
2.4722502522704335e-07,0.31936906380764957
2.4823410696266397e-07,0.31614616126809986
2.4924318869828454e-07,0.3133189757493948
2.502522704339051e-07,0.3109084627118301
2.512613521695257e-07,0.30892713327475113
2.522704339051463e-07,0.3073787290007179
2.5327951564076686e-07,0.30625816447393023
2.542885973763875e-07,0.30555174898358795
2.5529767911200805e-07,0.30523767830537335
2.563067608476286e-07,0.3052867680459304
2.5731584258324924e-07,0.30566338391866177
2.583249243188698e-07,0.3063265136144157
2.593340060544904e-07,0.30723092053273454
2.60343087790111e-07,0.30832832134384663
2.6135216952573157e-07,0.3095685360348968
2.6236125126135213e-07,0.3109005690877505
2.6337033299697276e-07,0.3122735919428667
2.643794147325933e-07,0.31363780833975224
2.653884964682139e-07,0.3149451943236865
2.663975782038345e-07,0.31615011298738926
2.674066599394551e-07,0.3172098101283747
2.6841574167507565e-07,0.3180848010304178
2.6942482341069627e-07,0.3187391608085373
2.7043390514631684e-07,0.3191407315730152
2.714429868819374e-07,0.31926125946263106
2.72452068617558e-07,0.3190764737238391
2.734611503531786e-07,0.31856611875898416
2.7447023208879917e-07,0.317713948649101
2.7547931382441973e-07,0.31650769222522346
2.7648839556004035e-07,0.3149389954107905
2.774974772956609e-07,0.3130033463381505
2.785065590312815e-07,0.31069998767448553
2.795156407669021e-07,0.30803181967553306
2.805247225025227e-07,0.3050052967040284
2.8153380423814325e-07,0.30163031927995504
2.8254288597376387e-07,0.2979201231424077
2.8355196770938444e-07,0.29389116626590606
2.84561049445005e-07,0.2895630142531005
2.8557013118062563e-07,0.2849582239851647
2.865792129162462e-07,0.2801022248137702
2.8758829465186676e-07,0.27502319588681273
2.885973763874874e-07,0.2697519373772705
2.8960645812310795e-07,0.2643217323977707
2.906155398587285e-07,0.2587681952086194
2.9162462159434914e-07,0.25312909995756827
2.926337033299697e-07,0.24744418264904133
2.936427850655903e-07,0.24175490740012306
2.946518668012109e-07,0.23610418644188577
2.9566094853683147e-07,0.23053604200439354
2.9667003027245204e-07,0.22509519753676627
2.976791120080726e-07,0.21982658614269546
2.9868819374369323e-07,0.21477476624897335
2.996972754793138e-07,0.20998323900456498
3.0070635721493436e-07,0.205493669272065
3.01715438950555e-07,0.2013450225583369
3.0272452068617555e-07,0.19757264349976128
3.037336024217961e-07,0.19420731640197453
3.0474268415741674e-07,0.1912743627060006
3.057517658930373e-07,0.1887928411661033
3.067608476286579e-07,0.186774920735345
3.077699293642785e-07,0.18522549099374752
3.0877901109989907e-07,0.18414205933335476
3.0978809283551964e-07,0.1835149592759779
3.1079717457114026e-07,0.18332786390082853
3.118062563067608e-07,0.18355856771307869
3.128153380423814e-07,0.18417997493889215
3.13824419778002e-07,0.1851612164223473
3.148335015136226e-07,0.1864688128732104
3.1584258324924315e-07,0.1880678084119858
3.1685166498486377e-07,0.18992281241521466
3.1786074672048434e-07,0.1919989058783241
3.188698284561049e-07,0.19426238732028747
3.1987891019172553e-07,0.19668134996181869
3.208879919273461e-07,0.19922609498388041
3.2189707366296667e-07,0.20186939465343848
3.2290615539858723e-07,0.20458662429855629
3.2391523713420786e-07,0.20735578426085233
3.249243188698284e-07,0.21015743292051806
3.25933400605449e-07,0.2129745504893544
3.269424823410696e-07,0.215792351155345
3.279515640766902e-07,0.2185980588079419
3.2896064581231075e-07,0.22138065927612985
3.2996972754793137e-07,0.22413063993522508
3.3097880928355194e-07,0.22683972574934352
3.319878910191725e-07,0.22950061931756177
3.3299697275479313e-07,0.2321067512500293
3.340060544904137e-07,0.23465204616642868
3.3501513622603427e-07,0.23713070873095854
3.360242179616549e-07,0.23953703336807206
3.3703329969727545e-07,0.24186524060362968
3.38042381432896e-07,0.2441093423200621
3.3905146316851664e-07,0.24626303758583393
3.400605449041372e-07,0.24831964011305752
3.410696266397578e-07,0.2502720378146435
3.420787083753784e-07,0.2521126843816481
3.4308779011099897e-07,0.25383362229356166
3.4409687184661954e-07,0.2554265362213042
3.4510595358224016e-07,0.25688283539577644
3.4611503531786073e-07,0.2581937632026296
3.471241170534813e-07,0.25935053203141517
3.481331987891019e-07,0.2603444812551122
3.491422805247225e-07,0.2611672561402767
3.5015136226034305e-07,0.26181100548015607
3.511604439959636e-07,0.2622685957901794
3.5216952573158424e-07,0.2625338399901996
3.531786074672048e-07,0.2626017385996875
3.541876892028254e-07,0.2624687315656404
3.55196770938446e-07,0.26213295889881383
3.5620585267406657e-07,0.2615945282775128
3.5721493440968714e-07,0.2608557876492755
3.5822401614530776e-07,0.2599216005721949
3.592330978809283e-07,0.25879962153461217
3.602421796165489e-07,0.25750056771217905
3.612512613521695e-07,0.25603848249635897
3.622603430877901e-07,0.2544309845879787
3.6326942482341065e-07,0.2526994944297917
3.6427850655903127e-07,0.2508694272112746
3.6528758829465184e-07,0.24897033862091364
3.662966700302724e-07,0.24703600603039036
3.6730575176589303e-07,0.24510442408235364
3.683148335015136e-07,0.24321769011066557
3.6932391523713417e-07,0.24142175207421562
3.703329969727548e-07,0.23976599062200563
3.7134207870837536e-07,0.238302608660174
3.723511604439959e-07,0.23708580761962314
3.7336024217961655e-07,0.23617074066298843
3.743693239152371e-07,0.2356122499420629
3.753784056508577e-07,0.2354634173288353
3.7638748738647825e-07,0.23577398392694182
3.7739656912209887e-07,0.23658871957725416
3.7840565085771944e-07,0.2379458445767806
3.7941473259334e-07,0.23987561659126116
3.8042381432896063e-07,0.2423991919953133
3.814328960645812e-07,0.24552785102184618
3.8244197780020177e-07,0.24926264222064984
3.834510595358224e-07,0.25359445942596004
3.8446014127144296e-07,0.25850452145917924
3.854692230070635e-07,0.2639651888367211
3.8647830474268415e-07,0.26994102834497363
3.874873864783047e-07,0.2763900276326073
3.884964682139253e-07,0.2832648667205013
3.895055499495459e-07,0.2905141679258204
3.9051463168516647e-07,0.29808366557328847
3.9152371342078704e-07,0.30591725778950013
3.9253279515640766e-07,0.3139579215319124
3.9354187689202823e-07,0.3221484870419606
3.945509586276488e-07,0.3304322785793657
3.955600403632694e-07,0.3387536348787788
3.9656912209889e-07,0.3470583260119336
3.9757820383451055e-07,0.3552938841276277
3.985872855701312e-07,0.3634098647164767
3.9959636730575174e-07,0.3713580532956082
4.006054490413723e-07,0.3790926302393853
4.016145307769929e-07,0.38657030423875705
4.026236125126135e-07,0.3937504227621186
4.0363269424823407e-07,0.40059506602370554
4.0464177598385464e-07,0.4070691293835236
4.0565085771947526e-07,0.4131403978057995
4.0665993945509583e-07,0.41877961496770144
4.076690211907164e-07,0.4239605488023113
4.08678102926337e-07,0.42866005464188683
4.096871846619576e-07,0.43285813666274653
4.1069626639757815e-07,0.4365380079883251
4.117053481331988e-07,0.43968614955274377
4.1271442986881934e-07,0.44229236763834257
4.137235116044399e-07,0.44434984985512765
4.1473259334006053e-07,0.4458552192089334
4.157416750756811e-07,0.44680858579112925
4.1675075681130167e-07,0.44721359549995815
4.177598385469223e-07,0.4470774750565934
4.1876892028254286e-07,0.44641107239213246
4.197780020181634e-07,0.4452288912387772
4.2078708375378405e-07,0.4435491184423926
4.217961654894046e-07,0.441393642106674
4.228052472250252e-07,0.4387880581633339
4.238143289606458e-07,0.43576166232099645
4.2482341069626637e-07,0.43234742356386463
4.2583249243188694e-07,0.42858193444202947
4.268415741675075e-07,0.42450533232199295
4.2785065590312813e-07,0.42016118456987156
4.288597376387487e-07,0.41559632936868746
4.2986881937436927e-07,0.41086066260994125
4.308779011099899e-07,0.40600686018159915
4.3188698284561046e-07,0.40109002419200646
4.32896064581231e-07,0.39616724147962507
4.3390514631685165e-07,0.39129704348209216
4.349142280524722e-07,0.3865387585391179
4.359233097880928e-07,0.38195175134928355
4.369323915237134e-07,0.37759454989122876
4.3794147325933397e-07,0.37352386779031466
4.3895055499495454e-07,0.3697935397151886
4.3995963673057516e-07,0.36645339838087665
4.4096871846619573e-07,0.3635481331044683
4.419778002018163e-07,0.36111618014465774
4.429868819374369e-07,0.359188702495231
4.439959636730575e-07,0.35778871962502673
4.4500504540867806e-07,0.35693044448611705
4.460141271442987e-07,0.3566188753790584
4.4702320887991925e-07,0.3568496745044678
4.480322906155398e-07,0.3576093449354541
4.4904137235116043e-07,0.3588756959093852
4.50050454086781e-07,0.36061856573930084
4.5105953582240157e-07,0.3628007550140305
4.520686175580222e-07,0.3653791120080182
4.5307769929364276e-07,0.36830570813477714
4.5408678102926333e-07,0.371529043473628
4.550958627648839e-07,0.3749952295973828
4.561049445005045e-07,0.3786491073540677
4.571140262361251e-07,0.3824352690632557
4.5812310797174565e-07,0.38629896619243786
4.591321897073663e-07,0.39018689384338107
4.6014127144298684e-07,0.39404785165656264
4.611503531786074e-07,0.39783328681999297
4.6215943491422803e-07,0.4014977288525663
4.631685166498486e-07,0.4049991280210356
4.6417759838546917e-07,0.4082991100287684
4.651866801210898e-07,0.4113631593748183
4.6619576185671036e-07,0.4141607428722688
4.6720484359233093e-07,0.41666538351850346
4.6821392532795155e-07,0.4188546934396296
4.692230070635721e-07,0.42071037313453036
4.702320887991927e-07,0.42221818281515794
4.712411705348133e-07,0.4233678903316372
4.722502522704339e-07,0.42415319900720816
4.7325933400605444e-07,0.4245716576931237
4.7426841574167506e-07,0.4246245544798619
4.7527749747729563e-07,0.42431679475514383
4.762865792129162e-07,0.4236567636664648
4.772956609485368e-07,0.422656172512702
4.783047426841574e-07,0.4213298881458854
4.79313824419778e-07,0.41969574410531185
