Time,Signal
0.0,0.08692917854008853
1.0090817356205852e-09,0.08353628302822043
2.0181634712411704e-09,0.08030342618886924
3.0272452068617556e-09,0.07724980241818928
4.036326942482341e-09,0.07439374806786114
5.0454086781029255e-09,0.07175263750132267
6.054490413723511e-09,0.06934276155821811
7.063572149344097e-09,0.0671791860626856
8.072653884964682e-09,0.06527559064354953
9.081735620585266e-09,0.06364409206622315
1.0090817356205851e-08,0.062295061166207005
1.1099899091826438e-08,0.06123694746739371
1.2108980827447022e-08,0.06047612933675468
1.3118062563067607e-08,0.06001680856872042
1.4127144298688194e-08,0.05986096547678636
1.5136226034308778e-08,0.060008383738867355
1.6145307769929363e-08,0.060456744552862575
1.7154389505549948e-08,0.06120177938310559
1.8163471241170533e-08,0.06223746235827278
1.9172552976791117e-08,0.06355621924762854
2.0181634712411702e-08,0.06514913059436758
2.119071644803229e-08,0.06700611126963239
2.2199798183652875e-08,0.06911605569394888
2.320887991927346e-08,0.07146694528600986
2.4217961654894045e-08,0.0740459207871536
2.522704339051463e-08,0.0768393261514502
2.6236125126135214e-08,0.07983273257736381
2.72452068617558e-08,0.08301095136618251
2.8254288597376387e-08,0.08635804321609908
2.9263370332996972e-08,0.089857329885629
3.0272452068617557e-08,0.09349141234627252
3.128153380423814e-08,0.09724219788859738
3.2290615539858726e-08,0.10109093729738142
3.3299697275479314e-08,0.10501827221130916
3.4308779011099896e-08,0.10900429210612823
3.5317860746720484e-08,0.11302859993040097
3.6326942482341065e-08,0.11707038521458647
3.7336024217961653e-08,0.12110850340627778
3.8345105953582235e-08,0.12512156020688586
3.935418768920282e-08,0.12908799975994337
4.0363269424823404e-08,0.13298619564181038
4.137235116044399e-08,0.13679454371436456
4.238143289606458e-08,0.14049155600569263
4.339051463168516e-08,0.14405595488318607
4.439959636730575e-08,0.14746676687144455
4.540867810292633e-08,0.15070341554468164
4.641775983854692e-08,0.15374581299081938
4.74268415741675e-08,0.15657444940369222
4.843592330978809e-08,0.15917048041254486
4.944500504540868e-08,0.16151581180621474
5.045408678102926e-08,0.1635931813548717
5.146316851664985e-08,0.16538623747678555
5.247225025227043e-08,0.16687961454311412
5.3481331987891016e-08,0.16805900466203078
5.44904137235116e-08,0.16891122583669074
5.5499495459132186e-08,0.16942428645195373
5.6508577194752774e-08,0.16958744611531582
5.7517658930373355e-08,0.16939127296187145
5.8526740665993944e-08,0.16882769763614508
5.9535822401614525e-08,0.1678900642919021
6.054490413723511e-08,0.16657317911352187
6.15539858728557e-08,0.16487335707179868
6.256306760847628e-08,0.16278846790085166
6.357214934409687e-08,0.1603179826465648
6.458123107971745e-08,0.1574630226273518
6.559031281533803e-08,0.15422641331878523
6.659939455095863e-08,0.15061274660432
6.760847628657921e-08,0.14662845614434233
6.861755802219979e-08,0.14228191248638516
6.962663975782037e-08,0.137583547249702
7.063572149344097e-08,0.13254601970302152
7.164480322906155e-08,0.12718444500415138
7.265388496468213e-08,0.12151671238845459
7.366296670030273e-08,0.11556393547162208
7.467204843592331e-08,0.10935109850614218
7.568113017154389e-08,0.10290799673612001
7.669021190716447e-08,0.09627062387201342
7.769929364278506e-08,0.08948324792793323
7.870837537840565e-08,0.0826015575905414
7.971745711402623e-08,0.07569747970923278
8.072653884964681e-08,0.06886657870574418
8.17356205852674e-08,0.06223928310782231
8.274470232088798e-08,0.05599714615078326
8.375378405650857e-08,0.05039352221366562
8.476286579212916e-08,0.045770793427080715
8.577194752774974e-08,0.04254890599066987
8.678102926337032e-08,0.04114231579173173
8.77901109989909e-08,0.04179803395245604
8.87991927346115e-08,0.044465573630699085
8.980827447023208e-08,0.04883601172368786
9.081735620585266e-08,0.054503200018980784
9.182643794147326e-08,0.061095120348325746
9.283551967709384e-08,0.06832126996210641
9.384460141271442e-08,0.07596889153396762
9.4853683148335e-08,0.08388418341094268
9.58627648839556e-08,0.09195443226619605
9.687184661957618e-08,0.10009482235484454
9.788092835519676e-08,0.10823950930249356
9.889001009081735e-08,0.11633575672113049
9.989909182643794e-08,0.12434010440348663
1.0090817356205852e-07,0.13221584890873458
1.019172552976791e-07,0.13993136868850817
1.029263370332997e-07,0.14745899622445874
1.0393541876892028e-07,0.1547742484027059
1.0494450050454086e-07,0.1618552944626731
1.0595358224016145e-07,0.168682583452116
1.0696266397578203e-07,0.17523857994951586
1.0797174571140261e-07,0.1815075739115516
1.089808274470232e-07,0.18747554154901067
1.0998990918264379e-07,0.1931300413770347
1.1099899091826437e-07,0.19846013440696433
1.1200807265388495e-07,0.20345632070581152
1.1301715438950555e-07,0.20811048678568017
1.1402623612512613e-07,0.21241585984349784
1.1503531786074671e-07,0.21636696597360242
1.1604439959636729e-07,0.21995959026761025
1.1705348133198789e-07,0.22319073729414002
1.1806256306760847e-07,0.22605859088017582
1.1907164480322905e-07,0.22856247244021088
1.2008072653884963e-07,0.23070279734909338
1.2108980827447023e-07,0.23248102905073728
1.2209889001009082e-07,0.23389963075233705
1.231079717457114e-07,0.23496201468287878
1.2411705348133198e-07,0.23567248900304225
1.2512613521695255e-07,0.2360362025463951
1.2613521695257315e-07,0.23605908765294825
1.2714429868819374e-07,0.23574780142851828
1.281533804238143e-07,0.23510966582891735
1.291624621594349e-07,0.23415260702832227
1.301715438950555e-07,0.2328850945873126
1.3118062563067607e-07,0.2313160809889195
1.3218970736629666e-07,0.22945494216121815
1.3319878910191726e-07,0.22731141965320215
1.3420787083753783e-07,0.22489556517746992
1.3521695257315842e-07,0.22221768827941976
1.36226034308779e-07,0.2192883079390848
1.3723511604439958e-07,0.21611810895972763
1.3824419778002018e-07,0.21271790404853502
1.3925327951564075e-07,0.20909860255151608
1.4026236125126134e-07,0.20527118687009954
1.4127144298688194e-07,0.20124669766504494
1.422805247225025e-07,0.19703622904948537
1.432896064581231e-07,0.19265093509415668
1.442986881937437e-07,0.18810204912298298
1.4530776992936426e-07,0.18340091747730192
1.4631685166498486e-07,0.17855904968590353
1.4732593340060545e-07,0.17358818731236958
1.4833501513622602e-07,0.16850039418048207
1.4934409687184661e-07,0.16330817122464458
1.5035317860746718e-07,0.15802459989788498
1.5136226034308778e-07,0.1526635189145593
1.5237134207870837e-07,0.14723974011695615
1.5338042381432894e-07,0.14176931041770413
1.5438950554994953e-07,0.1362698280138632
1.5539858728557013e-07,0.13076082222459273
1.564076690211907e-07,0.12526420702183722
1.574167507568113e-07,0.11980481793668514
1.5842583249243189e-07,0.11441103934104106
1.5943491422805245e-07,0.1091155221009196
1.6044399596367305e-07,0.10395597703002911
1.6145307769929362e-07,0.09897600262917323
1.624621594349142e-07,0.09422585997681927
1.634712411705348e-07,0.08976303695646386
1.6448032290615538e-07,0.08565234623992476
1.6548940464177597e-07,0.08196518860405735
1.6649848637739656e-07,0.07877752679526122
1.6750756811301713e-07,0.0761661406099301
1.6851664984863773e-07,0.07420299002855625
1.6952573158425832e-07,0.07294808164641982
1.705348133198789e-07,0.07244202059949849
1.7154389505549948e-07,0.0727000651063303
1.7255297679112008e-07,0.07370947323469797
1.7356205852674065e-07,0.07543101579495032
1.7457114026236124e-07,0.07780412326230118
1.755802219979818e-07,0.0807540346823313
1.765893037336024e-07,0.08419906598806172
1.77598385469223e-07,0.08805662792384993
1.7860746720484357e-07,0.09224741484389307
1.7961654894046416e-07,0.09669782457061721
1.8062563067608476e-07,0.10134099806394573
1.8163471241170533e-07,0.10611693821642358
1.8264379414732592e-07,0.11097209866788028
1.8365287588294652e-07,0.11585872217248111
1.8466195761856708e-07,0.12073410501738761
1.8567103935418768e-07,0.12555988688580072
1.8668012108980827e-07,0.13030141462959974
1.8768920282542884e-07,0.13492719777460127
1.8869828456104944e-07,0.13940845669813637
1.8970736629667e-07,0.14371875609011553
1.907164480322906e-07,0.14783371294262185
1.917255297679112e-07,0.15173076763273458
1.9273461150353176e-07,0.155389007311839
1.9374369323915236e-07,0.15878903202486824
1.9475277497477295e-07,0.16191285534476726
1.9576185671039352e-07,0.16474383261788886
1.9677093844601411e-07,0.16726661108698157
1.977800201816347e-07,0.16946709716286762
1.9878910191725528e-07,0.17133243695702044
1.9979818365287587e-07,0.1728510068816027
2.0080726538849644e-07,0.17401241169212192
2.0181634712411703e-07,0.17480748781171462
2.0282542885973763e-07,0.17522831015424944
2.038345105953582e-07,0.17526820097230997
2.048435923309788e-07,0.17492173950937032
2.058526740665994e-07,0.17418477144428504
2.0686175580221996e-07,0.17305441728966978
2.0787083753784055e-07,0.17152907905113857
2.0887991927346114e-07,0.16960844457759938
2.098890010090817e-07,0.16729348913867823
2.108980827447023e-07,0.16458647385779315
2.119071644803229e-07,0.16149094071182782
2.1291624621594347e-07,0.15801170388377458
2.1392532795156407e-07,0.15415483732613283
2.1493440968718463e-07,0.14992765846343745
2.1594349142280523e-07,0.14533870803603727
2.1695257315842582e-07,0.1403977261694458
2.179616548940464e-07,0.13511562485215842
2.1897073662966699e-07,0.12950445713215195
2.1997981836528758e-07,0.12357738351881876
2.2098890010090815e-07,0.11734863633783278
2.2199798183652874e-07,0.1108334831935985
2.2300706357214934e-07,0.10404819136198179
2.240161453077699e-07,0.09700999608401847
2.250252270433905e-07,0.08973707779674073
2.260343087790111e-07,0.08224855723755663
2.2704339051463166e-07,0.0745645251281342
2.2805247225025226e-07,0.06670613960011142
2.2906155398587283e-07,0.05869586200300736
2.3007063572149342e-07,0.050557994955356955
2.3107971745711402e-07,0.042319945429381334
2.3208879919273458e-07,0.03401546560257686
2.3309788092835518e-07,0.025694357295474833
2.3410696266397577e-07,0.01745986968401831
2.3511604439959634e-07,0.009691843489528782
2.3612512613521694e-07,0.005374043449655859
2.3713420787083753e-07,0.010468877557065484
2.381432896064581e-07,0.018288695396765087
2.391523713420787e-07,0.02646558201986305
2.4016145307769926e-07,0.034683148844759405
2.411705348133199e-07,0.042849191107090304
2.4217961654894045e-07,0.050917795259247084
2.43188698284561e-07,0.05885762625383461
2.4419778002018164e-07,0.06664340698895722
2.452068617558022e-07,0.07425300967574675
2.462159434914228e-07,0.08166630437936229
2.4722502522704335e-07,0.08886466185372777
2.4823410696266397e-07,0.09583073198620005
2.4924318869828454e-07,0.10254834916521707
2.502522704339051e-07,0.10900249981076071
2.512613521695257e-07,0.11517932140732338
2.522704339051463e-07,0.1210661174793332
2.5327951564076686e-07,0.1266513801267121
2.542885973763875e-07,0.13192481536002035
2.5529767911200805e-07,0.1368773683987202
2.563067608476286e-07,0.14150124716571127
2.5731584258324924e-07,0.14578994283078286
2.583249243188698e-07,0.1497382466282277
2.593340060544904e-07,0.1533422624060156
2.60343087790111e-07,0.15659941451348655
2.6135216952573157e-07,0.1595084507338474
2.6236125126135213e-07,0.1620694400355321
2.6337033299697276e-07,0.16428376496368266
2.643794147325933e-07,0.16615410852625295
2.653884964682139e-07,0.1676844354525599
2.663975782038345e-07,0.16887996771804256
2.674066599394551e-07,0.16974715423912898
2.6841574167507565e-07,0.17029363464757613
2.6942482341069627e-07,0.170528197055206
2.7043390514631684e-07,0.17046072971835802
2.714429868819374e-07,0.17010216650734408
2.72452068617558e-07,0.1694644260805994
2.734611503531786e-07,0.16856034465729747
2.7447023208879917e-07,0.16740360227738363
2.7547931382441973e-07,0.16600864243642732
2.7648839556004035e-07,0.16439058498693526
2.774974772956609e-07,0.16256513221125518
2.785065590312815e-07,0.16054846799807168
2.795156407669021e-07,0.15835715009980678
2.805247225025227e-07,0.15600799551789005
2.8153380423814325e-07,0.15351795916350297
2.8254288597376387e-07,0.15090400608010138
2.8355196770938444e-07,0.14818297769792935
2.84561049445005e-07,0.14537145282622843
2.8557013118062563e-07,0.14248560438065808
2.865792129162462e-07,0.13954105319333548
2.8758829465186676e-07,0.13655272065815968
2.885973763874874e-07,0.13353468241597014
2.8960645812310795e-07,0.13050002576619651
2.906155398587285e-07,0.12746071397898287
2.9162462159434914e-07,0.12442746114027217
2.926337033299697e-07,0.12140962155004151
2.936427850655903e-07,0.11841509796345624
2.946518668012109e-07,0.11545027306790961
2.9566094853683147e-07,0.11251996848289687
2.9667003027245204e-07,0.10962743522427518
2.976791120080726e-07,0.10677437897993254
2.9868819374369323e-07,0.10396102271718573
2.996972754793138e-07,0.10118620813076383
3.0070635721493436e-07,0.09844753632151527
3.01715438950555e-07,0.09574154697265967
3.0272452068617555e-07,0.09306393428088044
3.037336024217961e-07,0.09040979712548416
3.0474268415741674e-07,0.08777392053142027
3.057517658930373e-07,0.08515108548918073
3.067608476286579e-07,0.08253640469107985
3.077699293642785e-07,0.0799256827426175
3.0877901109989907e-07,0.0773158008747449
3.0978809283551964e-07,0.07470512802299333
3.1079717457114026e-07,0.07209396217291246
3.118062563067608e-07,0.06948500778236454
3.128153380423814e-07,0.06688389633201007
3.13824419778002e-07,0.06429975668035032
3.148335015136226e-07,0.06174583830850674
3.1584258324924315e-07,0.05924018112709109
3.1685166498486377e-07,0.05680630631488284
3.1786074672048434e-07,0.05447386827659404
3.188698284561049e-07,0.052279152449027415
3.1987891019172553e-07,0.050265224763969996
3.208879919273461e-07,0.04848144502365009
3.2189707366296667e-07,0.046981982424276626
3.2290615539858723e-07,0.04582298910372555
3.2391523713420786e-07,0.04505829721171152
3.249243188698284e-07,0.0447339700605339
3.25933400605449e-07,0.04488266401057068
3.269424823410696e-07,0.045519219267878934
3.279515640766902e-07,0.04663878966587722
3.2896064581231075e-07,0.04821803195887416
3.2996972754793137e-07,0.05021880503452391
3.3097880928355194e-07,0.0525931075605805
3.319878910191725e-07,0.0552879332170645
3.3299697275479313e-07,0.058249176861742344
3.340060544904137e-07,0.06142429303396455
3.3501513622603427e-07,0.06476381386552264
3.360242179616549e-07,0.06822201272820437
3.3703329969727545e-07,0.07175701641744726
3.38042381432896e-07,0.07533060895545292
3.3905146316851664e-07,0.07890789386931138
3.400605449041372e-07,0.08245691686619407
3.410696266397578e-07,0.08594830454739354
3.420787083753784e-07,0.08935494529137215
3.4308779011099897e-07,0.09265172118601277
3.4409687184661954e-07,0.09581529064722062
3.4510595358224016e-07,0.09882391695590706
3.4611503531786073e-07,0.10165733627889541
3.471241170534813e-07,0.10429665851948296
3.481331987891019e-07,0.10672429481795323
3.491422805247225e-07,0.10892390627471253
3.5015136226034305e-07,0.11088036928117707
3.511604439959636e-07,0.11257975361129703
3.5216952573158424e-07,0.11400931010665409
3.531786074672048e-07,0.11515746536945935
3.541876892028254e-07,0.11601382136520655
3.55196770938446e-07,0.11656915824145102
3.5620585267406657e-07,0.11681543900459497
3.5721493440968714e-07,0.11674581497585272
3.5822401614530776e-07,0.11635463118306003
3.592330978809283e-07,0.11563743104781823
3.602421796165489e-07,0.1145909599080941
3.612512613521695e-07,0.1132131670849853
3.622603430877901e-07,0.11150320636992309
3.6326942482341065e-07,0.10946143498800484
3.6427850655903127e-07,0.10708941130146574
3.6528758829465184e-07,0.1043898917785941
3.662966700302724e-07,0.10136682810427695
3.6730575176589303e-07,0.09802536580681334
3.683148335015136e-07,0.0943718465172479
3.6932391523713417e-07,0.09041381712478756
3.703329969727548e-07,0.08616005093032543
3.7134207870837536e-07,0.08162058894740977
3.723511604439959e-07,0.07680681472883547
3.7336024217961655e-07,0.07173158540725583
3.743693239152371e-07,0.06640945890612651
3.753784056508577e-07,0.060857090812362166
3.7638748738647825e-07,0.05509394305247097
3.7739656912209887e-07,0.0491435959062869
3.7840565085771944e-07,0.04303630411963606
3.7941473259334e-07,0.03681432611058094
3.8042381432896063e-07,0.030544049123804123
3.814328960645812e-07,0.02434675435771349
3.8244197780020177e-07,0.01848689564591191
3.834510595358224e-07,0.013643340343510163
3.8446014127144296e-07,0.011455257314233587
3.854692230070635e-07,0.013469035400108898
3.8647830474268415e-07,0.018442860359890983
3.874873864783047e-07,0.024694064153523577
3.884964682139253e-07,0.031491895642184076
3.895055499495459e-07,0.03855193504879147
3.9051463168516647e-07,0.04574435332541988
3.9152371342078704e-07,0.052997820345602686
3.9253279515640766e-07,0.060266248591006266
3.9354187689202823e-07,0.06751579850542469
3.945509586276488e-07,0.07471920921961464
3.955600403632694e-07,0.08185309516327935
3.9656912209889e-07,0.08889656451327034
3.9757820383451055e-07,0.0958304752143884
3.985872855701312e-07,0.10263701907961915
3.9959636730575174e-07,0.10929948384261981
4.006054490413723e-07,0.11580211589401557
4.016145307769929e-07,0.1221300418660599
4.026236125126135e-07,0.12826922540411897
4.0363269424823407e-07,0.13420644522716976
4.0464177598385464e-07,0.1399292860438262
4.0565085771947526e-07,0.14542613706256036
4.0665993945509583e-07,0.15068619473878359
4.076690211907164e-07,0.1556994675804345
4.08678102926337e-07,0.16045678158586776
4.096871846619576e-07,0.16494978538208416
4.1069626639757815e-07,0.16917095446605127
4.117053481331988e-07,0.17311359418584218
4.1271442986881934e-07,0.17677184126753223
4.137235116044399e-07,0.18014066382073474
4.1473259334006053e-07,0.18321585985469158
4.157416750756811e-07,0.18599405441731737
4.1675075681130167e-07,0.18847269553778928
4.177598385469223e-07,0.19065004921343157
4.1876892028254286e-07,0.1925251937367769
4.197780020181634e-07,0.19409801371098861
4.2078708375378405e-07,0.1953691941529878
4.217961654894046e-07,0.19634021513500485
4.228052472250252e-07,0.19701334746801288
4.238143289606458e-07,0.19739164998565856
4.2482341069626637e-07,0.19747896904581808
4.2583249243188694e-07,0.1972799409296645
4.268415741675075e-07,0.1967999978859209
4.2785065590312813e-07,0.19604537864137261
4.288597376387487e-07,0.1950231442780617
4.2986881937436927e-07,0.1937412004626136
4.308779011099899e-07,0.19220832710280247
4.3188698284561046e-07,0.19043421659829585
4.32896064581231e-07,0.188429521941973
4.3390514631685165e-07,0.18620591600759623
4.349142280524722e-07,0.18377616341650257
4.359233097880928e-07,0.1811542063911998
4.369323915237134e-07,0.17835526594837356
4.3794147325933397e-07,0.175395959615481
4.3895055499495454e-07,0.17229443651305512
4.3995963673057516e-07,0.16907053004415434
4.4096871846619573e-07,0.1657459274576895
4.419778002018163e-07,0.16234435405227318
4.429868819374369e-07,0.15889176757230447
4.439959636730575e-07,0.15541655519704492
4.4500504540867806e-07,0.15194972120622713
4.460141271442987e-07,0.14852504773501007
4.4702320887991925e-07,0.14517920395949876
4.480322906155398e-07,0.14195177083321853
4.4904137235116043e-07,0.138885139903254
4.50050454086781e-07,0.1360242373508938
4.5105953582240157e-07,0.13341602083896997
4.520686175580222e-07,0.13110870066969563
4.5307769929364276e-07,0.12915065239187243
4.5408678102926333e-07,0.12758901886460267
4.550958627648839e-07,0.12646804655547755
4.561049445005045e-07,0.12582725884128557
4.571140262361251e-07,0.12569962671671359
4.5812310797174565e-07,0.12610993740974225
4.591321897073663e-07,0.12707356635888037
4.6014127144298684e-07,0.1285958178399913
4.611503531786074e-07,0.13067191867030523
4.6215943491422803e-07,0.13328764753559896
4.631685166498486e-07,0.13642048747365423
4.6417759838546917e-07,0.14004112548317865
4.651866801210898e-07,0.14411510291005913
4.6619576185671036e-07,0.1486044397523704
4.6720484359233093e-07,0.15346910125102756
4.6821392532795155e-07,0.15866822908471206
4.692230070635721e-07,0.1641611085396052
4.702320887991927e-07,0.16990787969649782
4.712411705348133e-07,0.17587002320494838
4.722502522704339e-07,0.18201066152001985
4.7325933400605444e-07,0.18829471802569733
4.7426841574167506e-07,0.19468897275399094
4.7527749747729563e-07,0.20116204720390735
