Time,Signal
0.0,0.061264769453429506
1.0090817356205852e-09,0.059887500365032674
2.0181634712411704e-09,0.05842010461641109
3.0272452068617556e-09,0.056870555655975825
4.036326942482341e-09,0.0552484450686972
5.0454086781029255e-09,0.05356526404157423
6.054490413723511e-09,0.05183473654122296
7.063572149344097e-09,0.05007320841764295
8.072653884964682e-09,0.048300090983270996
9.081735620585266e-09,0.04653834612016133
1.0090817356205851e-08,0.044814979186260866
1.1099899091826438e-08,0.04316147182936865
1.2108980827447022e-08,0.041614036238683476
1.3118062563067607e-08,0.040213507707296446
1.4127144298688194e-08,0.03900462932472205
1.5136226034308778e-08,0.038034459953562534
1.6145307769929363e-08,0.0373497181308914
1.7154389505549948e-08,0.036993123090375044
1.8163471241170533e-08,0.036999203814417236
1.9172552976791117e-08,0.037390466522502955
2.0181634712411702e-08,0.038174963182133884
2.119071644803229e-08,0.03934597977935276
2.2199798183652875e-08,0.04088385970430829
2.320887991927346e-08,0.04275928622024806
2.4217961654894045e-08,0.04493704080066542
2.522704339051463e-08,0.04737939724067973
2.6236125126135214e-08,0.050048694171973836
2.72452068617558e-08,0.05290899786712952
2.8254288597376387e-08,0.055926992945588394
2.9263370332996972e-08,0.059072318530499705
3.0272452068617557e-08,0.06231755620068405
3.128153380423814e-08,0.06563802790601016
3.2290615539858726e-08,0.06901150994759823
3.3299697275479314e-08,0.07241792705958214
3.4308779011099896e-08,0.07583906129340405
3.5317860746720484e-08,0.07925829185096721
3.6326942482341065e-08,0.0826603711801149
3.7336024217961653e-08,0.08603123682727876
3.8345105953582235e-08,0.08935785575953568
3.935418768920282e-08,0.09262809681597736
4.0363269424823404e-08,0.09583062681941994
4.137235116044399e-08,0.09895482620023671
4.238143289606458e-08,0.10199072048894829
4.339051463168516e-08,0.1049289245821646
4.439959636730575e-08,0.10776059720814268
4.540867810292633e-08,0.11047740348391179
4.641775983854692e-08,0.1130714838569975
4.74268415741675e-08,0.11553542806295887
4.843592330978809e-08,0.11786225301161625
4.944500504540868e-08,0.1200453837477848
5.045408678102926e-08,0.12207863682433094
5.146316851664985e-08,0.12395620558345237
5.247225025227043e-08,0.12567264697229263
5.3481331987891016e-08,0.12722286962638502
5.44904137235116e-08,0.12860212304309881
5.5499495459132186e-08,0.1298059877406192
5.6508577194752774e-08,0.13083036635874043
5.7517658930373355e-08,0.13167147570812207
5.8526740665993944e-08,0.13232583981649704
5.9535822401614525e-08,0.13279028405518817
6.054490413723511e-08,0.1330619304585756
6.15539858728557e-08,0.13313819437413962
6.256306760847628e-08,0.13301678260266767
6.357214934409687e-08,0.13269569320847285
6.458123107971745e-08,0.1321732171995605
6.559031281533803e-08,0.1314479422993151
6.659939455095863e-08,0.13051875905666457
6.760847628657921e-08,0.12938486957349193
6.861755802219979e-08,0.12804579916986245
6.962663975782037e-08,0.12650141136403
7.063572149344097e-08,0.12475192662139113
7.164480322906155e-08,0.12279794543302412
7.265388496468213e-08,0.12064047643176753
7.366296670030273e-08,0.11828097045817476
7.467204843592331e-08,0.11572136177296663
7.568113017154389e-08,0.11296411800945655
7.669021190716447e-08,0.11001230101604115
7.769929364278506e-08,0.10686964152430035
7.870837537840565e-08,0.10354063169469682
7.971745711402623e-08,0.10003064119226458
8.072653884964681e-08,0.09634606476037574
8.17356205852674e-08,0.09249451264530362
8.274470232088798e-08,0.08848506022303276
8.375378405650857e-08,0.0843285806385385
8.476286579212916e-08,0.08003819550226257
8.577194752774974e-08,0.07562989573504711
8.678102926337032e-08,0.07112341060538059
8.77901109989909e-08,0.06654344235071172
8.87991927346115e-08,0.061921442329753565
8.980827447023208e-08,0.057298187633410866
9.081735620585266e-08,0.05272752094706424
9.182643794147326e-08,0.04828170224212198
9.283551967709384e-08,0.04405873953039811
9.384460141271442e-08,0.04019138537630298
9.4853683148335e-08,0.03685523500409536
9.58627648839556e-08,0.03426825862980983
9.687184661957618e-08,0.03266746044260856
9.788092835519676e-08,0.032251251556179236
9.889001009081735e-08,0.03310550834004718
9.989909182643794e-08,0.035167615168286655
1.0090817356205852e-07,0.038261508605279305
1.019172552976791e-07,0.04216935658319159
1.029263370332997e-07,0.04668711259527557
1.0393541876892028e-07,0.05164739570009494
1.0494450050454086e-07,0.05692073012614046
1.0595358224016145e-07,0.062408567645465526
1.0696266397578203e-07,0.06803527162856365
1.0797174571140261e-07,0.07374150955545636
1.089808274470232e-07,0.07947940320093462
1.0998990918264379e-07,0.08520913518223433
1.1099899091826437e-07,0.09089661837591412
1.1200807265388495e-07,0.0965119033789764
1.1301715438950555e-07,0.10202808933640899
1.1402623612512613e-07,0.10742057716954187
1.1503531786074671e-07,0.1126665569280254
1.1604439959636729e-07,0.11774465671416219
1.1705348133198789e-07,0.12263470435864147
1.1806256306760847e-07,0.12731756870564712
1.1907164480322905e-07,0.13177505775219492
1.2008072653884963e-07,0.1359898578159273
1.2108980827447023e-07,0.13994550257194358
1.2209889001009082e-07,0.14362636397537015
1.231079717457114e-07,0.14701765927289306
1.2411705348133198e-07,0.1501054698295557
1.2512613521695255e-07,0.15287676857099122
1.2613521695257315e-07,0.15531945360797436
1.2714429868819374e-07,0.15742238616499396
1.281533804238143e-07,0.15917543134197268
1.291624621594349e-07,0.160569500542654
1.301715438950555e-07,0.16159659463532608
1.3118062563067607e-07,0.16224984709332022
1.3218970736629666e-07,0.16252356650989283
1.3319878910191726e-07,0.16241327800651656
1.3420787083753783e-07,0.16191576316450593
1.3521695257315842e-07,0.16102909821512176
1.36226034308779e-07,0.15975269032999773
1.3723511604439958e-07,0.15808731196932999
1.3824419778002018e-07,0.15603513337822095
1.3925327951564075e-07,0.15359975348242008
1.4026236125126134e-07,0.1507862296375567
1.4127144298688194e-07,0.14760110695043197
1.422805247225025e-07,0.14405244824529703
1.432896064581231e-07,0.1401498662339687
1.442986881937437e-07,0.13590456012876864
1.4530776992936426e-07,0.13132935990750236
1.4631685166498486e-07,0.12643878284930937
1.4732593340060545e-07,0.12124910904579218
1.4833501513622602e-07,0.11577848573498242
1.4934409687184661e-07,0.11004707513379314
1.5035317860746718e-07,0.10407726800910645
1.5136226034308778e-07,0.09789399732659904
1.5237134207870837e-07,0.09152520608648738
1.5338042381432894e-07,0.0850025564744367
1.5438950554994953e-07,0.07836252380674469
1.5539858728557013e-07,0.07164811684069877
1.564076690211907e-07,0.06491163931640319
1.574167507568113e-07,0.05821921462024129
1.5842583249243189e-07,0.05165832554789012
1.5943491422805245e-07,0.04535044612755102
1.6044399596367305e-07,0.039471681080833786
1.6145307769929362e-07,0.03428306326340114
1.624621594349142e-07,0.03016040157818307
1.634712411705348e-07,0.02757430835125216
1.6448032290615538e-07,0.026927528422082174
1.6548940464177597e-07,0.02828299118067461
1.6649848637739656e-07,0.03129334825272487
1.6750756811301713e-07,0.0354404108079761
1.6851664984863773e-07,0.0402695538428814
1.6952573158425832e-07,0.04545627352476296
1.705348133198789e-07,0.050783157551556
1.7154389505549948e-07,0.05610362853859946
1.7255297679112008e-07,0.061315173935289784
1.7356205852674065e-07,0.06634269209603061
1.7457114026236124e-07,0.07112861374472107
1.755802219979818e-07,0.07562707338722326
1.765893037336024e-07,0.07980044048848653
1.77598385469223e-07,0.08361723614531688
1.7860746720484357e-07,0.08705088199129822
1.7961654894046416e-07,0.09007896540028869
1.8062563067608476e-07,0.0926828387610033
1.8163471241170533e-07,0.09484744740064431
1.8264379414732592e-07,0.09656132639854897
1.8365287588294652e-07,0.09781673514550888
1.8466195761856708e-07,0.09860991791113564
1.8567103935418768e-07,0.09894149338932011
1.8668012108980827e-07,0.09881698891064059
1.8768920282542884e-07,0.09824754741610298
1.8869828456104944e-07,0.09725084830755129
1.8970736629667e-07,0.09585229699416241
1.907164480322906e-07,0.09408655092570069
1.917255297679112e-07,0.09199945780738253
1.9273461150353176e-07,0.08965047450887972
1.9374369323915236e-07,0.08711559251508971
1.9475277497477295e-07,0.08449068034553452
1.9576185671039352e-07,0.08189490611930185
1.9677093844601411e-07,0.07947345289174286
1.977800201816347e-07,0.07739805639782721
1.9878910191725528e-07,0.07586313769376365
1.9979818365287587e-07,0.07507504165278146
2.0080726538849644e-07,0.07523315155104449
2.0181634712411703e-07,0.07650517704055027
2.0282542885973763e-07,0.0790035274559125
2.038345105953582e-07,0.08277166735541233
2.048435923309788e-07,0.08778563575111328
2.058526740665994e-07,0.09396854623189596
2.0686175580221996e-07,0.10121070086221307
2.0787083753784055e-07,0.10938809437173093
2.0887991927346114e-07,0.11837558366661613
2.098890010090817e-07,0.12805439467004295
2.108980827447023e-07,0.13831534442107465
2.119071644803229e-07,0.14905943434995805
2.1291624621594347e-07,0.1601971024396794
2.1392532795156407e-07,0.17164694611339462
2.1493440968718463e-07,0.1833343571271857
2.1594349142280523e-07,0.1951902751028996
2.1695257315842582e-07,0.20715013566003457
2.179616548940464e-07,0.21915302378007206
2.1897073662966699e-07,0.23114101439224372
2.1997981836528758e-07,0.24305867242664592
2.2098890010090815e-07,0.2548526837576404
2.2199798183652874e-07,0.2664715913352241
2.2300706357214934e-07,0.27786561481376254
2.240161453077699e-07,0.2889865359787805
2.250252270433905e-07,0.2997876357895971
2.260343087790111e-07,0.3102236717781164
2.2704339051463166e-07,0.3202508868968494
2.2805247225025226e-07,0.329827042770638
2.2906155398587283e-07,0.33891147176617814
2.3007063572149342e-07,0.3474651434344679
2.3107971745711402e-07,0.35545074177438823
2.3208879919273458e-07,0.36283275046822355
2.3309788092835518e-07,0.3695775437976708
2.3410696266397577e-07,0.3756534813976371
2.3511604439959634e-07,0.3810310053730135
2.3612512613521694e-07,0.38568273861294383
2.3713420787083753e-07,0.3895835834058002
2.381432896064581e-07,0.3927108197010749
2.391523713420787e-07,0.3950442025946911
2.4016145307769926e-07,0.3965660588438621
2.411705348133199e-07,0.39726138245857984
2.4217961654894045e-07,0.39711792968201143
2.43188698284561e-07,0.3961263139763636
2.4419778002018164e-07,0.3942801019923075
2.452068617558022e-07,0.3915759119418458
2.462159434914228e-07,0.3880135163467893
2.4722502522704335e-07,0.3835959518381867
2.4823410696266397e-07,0.3783296395911286
2.4924318869828454e-07,0.37222452116995575
2.502522704339051e-07,0.3652942161361677
2.512613521695257e-07,0.3575562098824239
2.522704339051463e-07,0.3490320830083609
2.5327951564076686e-07,0.339747797441261
2.542885973763875e-07,0.32973405984421217
2.5529767911200805e-07,0.31902679023929903
2.563067608476286e-07,0.3076677340431155
2.5731584258324924e-07,0.2957052700422563
2.583249243188698e-07,0.2831954868373788
2.593340060544904e-07,0.2702036280624637
2.60343087790111e-07,0.25680604474393676
2.6135216952573157e-07,0.2430928438064226
2.6236125126135213e-07,0.22917148516286287
2.6337033299697276e-07,0.21517164907730213
2.643794147325933e-07,0.2012517441366087
2.653884964682139e-07,0.18760738109569075
2.663975782038345e-07,0.1744818255127599
2.674066599394551e-07,0.16217750420834737
2.6841574167507565e-07,0.15106547766226092
2.6942482341069627e-07,0.1415858119825114
2.7043390514631684e-07,0.13422667019409376
2.714429868819374e-07,0.1294684429831142
2.72452068617558e-07,0.12769132963461438
2.734611503531786e-07,0.12907497295702694
2.7447023208879917e-07,0.13354433729337783
2.7547931382441973e-07,0.14079773415003355
2.7648839556004035e-07,0.15039701165057417
2.774974772956609e-07,0.16186593276861141
2.785065590312815e-07,0.17475801735607333
2.795156407669021e-07,0.18868747656996954
2.805247225025227e-07,0.20333473402446078
2.8153380423814325e-07,0.21843962553321286
2.8254288597376387e-07,0.233790760633565
2.8355196770938444e-07,0.24921512443812566
2.84561049445005e-07,0.26456937104437844
2.8557013118062563e-07,0.27973303088079743
2.865792129162462e-07,0.29460339495085847
2.8758829465186676e-07,0.3090917289403332
2.885973763874874e-07,0.32312049371517026
2.8960645812310795e-07,0.3366213102870687
2.906155398587285e-07,0.34953346989608347
2.9162462159434914e-07,0.36180284192513357
2.926337033299697e-07,0.3733810723072113
2.936427850655903e-07,0.3842249945774584
2.946518668012109e-07,0.3942961970978123
2.9566094853683147e-07,0.4035607053575216
2.9667003027245204e-07,0.4119887492987987
2.976791120080726e-07,0.4195545935744663
2.9868819374369323e-07,0.42623641440897203
2.996972754793138e-07,0.43201621094205234
3.0070635721493436e-07,0.43687974203544905
3.01715438950555e-07,0.4408164818351385
3.0272452068617555e-07,0.4438195891296733
3.037336024217961e-07,0.44588588688994474
3.0474268415741674e-07,0.44701584943235184
3.057517658930373e-07,0.4472135954999581
3.067608476286579e-07,0.44648688626671407
3.077699293642785e-07,0.44484712788485603
3.0877901109989907e-07,0.44230937875108906
3.0978809283551964e-07,0.43889236219149136
3.1079717457114026e-07,0.43461848578119594
3.118062563067608e-07,0.4295138690415648
3.128153380423814e-07,0.42360838180984295
3.13824419778002e-07,0.4169356961649499
3.148335015136226e-07,0.40953335542315766
3.1584258324924315e-07,0.4014428643846911
3.1685166498486377e-07,0.39270980569763764
3.1786074672048434e-07,0.38338398786517647
3.188698284561049e-07,0.3735196309724412
3.1987891019172553e-07,0.3631755965030364
3.208879919273461e-07,0.35241566740569197
3.2189707366296667e-07,0.34130888346008775
3.2290615539858723e-07,0.3299299343534853
3.2391523713420786e-07,0.3183596077704661
3.249243188698284e-07,0.3066852808367687
3.25933400605449e-07,0.2950014285311398
3.269424823410696e-07,0.2834100997256635
3.279515640766902e-07,0.2720212775580963
3.2896064581231075e-07,0.2609529935480752
3.2996972754793137e-07,0.2503310040973006
3.3097880928355194e-07,0.240287769032509
3.319878910191725e-07,0.23096041024019448
3.3299697275479313e-07,0.22248730550210302
3.340060544904137e-07,0.21500303725554942
3.3501513622603427e-07,0.2086316249764463
3.360242179616549e-07,0.20347835757642269
3.3703329969727545e-07,0.19962107005684157
3.38042381432896e-07,0.19710222153564366
3.3905146316851664e-07,0.19592337649490935
3.400605449041372e-07,0.19604343861457307
3.410696266397578e-07,0.19738121033813186
3.420787083753784e-07,0.1998218144506019
3.4308779011099897e-07,0.20322564632935206
3.4409687184661954e-07,0.2074381602113981
3.4510595358224016e-07,0.2122989791690488
3.4611503531786073e-07,0.2176493515374255
3.471241170534813e-07,0.22333757408580346
3.481331987891019e-07,0.22922246403072788
3.491422805247225e-07,0.23517522018501635
3.5015136226034305e-07,0.24108009632805505
3.511604439959636e-07,0.24683428223405765
3.5216952573158424e-07,0.25234731018955325
3.531786074672048e-07,0.2575402174935958
3.541876892028254e-07,0.2623446187806116
3.55196770938446e-07,0.2667017829685949
3.5620585267406657e-07,0.2705617679508271
3.5721493440968714e-07,0.273882638653537
3.5822401614530776e-07,0.2766297770529716
3.592330978809283e-07,0.2787752829248227
3.602421796165489e-07,0.2802974589889391
3.612512613521695e-07,0.2811803719431629
3.622603430877901e-07,0.2814134804654818
3.6326942482341065e-07,0.28099132184249315
3.6427850655903127e-07,0.27991324998658945
3.6528758829465184e-07,0.27818321896051396
3.662966700302724e-07,0.27580960758695866
3.6730575176589303e-07,0.272805082211744
3.683148335015136e-07,0.26918649618851453
3.6932391523713417e-07,0.26497482616499
3.703329969727548e-07,0.2601951467934433
3.7134207870837536e-07,0.25487664708126806
3.723511604439959e-07,0.24905269325124707
3.7336024217961655e-07,0.24276094467849577
3.743693239152371e-07,0.23604353114126783
3.753784056508577e-07,0.2289473010969823
3.7638748738647825e-07,0.22152415163314434
3.7739656912209887e-07,0.21383145051742233
3.7840565085771944e-07,0.20593255828521653
3.7941473259334e-07,0.1978974517271927
3.8042381432896063e-07,0.18980343656495624
3.814328960645812e-07,0.18173591217503282
3.8244197780020177e-07,0.17378910896990604
3.834510595358224e-07,0.16606665247341684
3.8446014127144296e-07,0.1586817116913797
3.854692230070635e-07,0.15175636519454336
3.8647830474268415e-07,0.14541968803421207
3.874873864783047e-07,0.1398039840524934
3.884964682139253e-07,0.13503866718096547
3.895055499495459e-07,0.13124166688867206
3.9051463168516647e-07,0.12850897647504195
3.9152371342078704e-07,0.12690395280679112
3.9253279515640766e-07,0.12644877714493258
3.9354187689202823e-07,0.12712049890996238
3.945509586276488e-07,0.12885299692925545
3.955600403632694e-07,0.1315443935585465
3.9656912209889e-07,0.13506787494025474
3.9757820383451055e-07,0.13928327857566491
3.985872855701312e-07,0.14404727964390113
3.9959636730575174e-07,0.14922102373545487
4.006054490413723e-07,0.15467502014184956
4.016145307769929e-07,0.1602917114951359
4.026236125126135e-07,0.1659663579984789
4.0363269424823407e-07,0.1716068490427497
4.0464177598385464e-07,0.1771329213670801
4.0565085771947526e-07,0.18247511228432087
4.0665993945509583e-07,0.1875736506961808
4.076690211907164e-07,0.19237739828455022
4.08678102926337e-07,0.1968428945753656
4.096871846619576e-07,0.20093352442908943
4.1069626639757815e-07,0.20461880715290517
4.117053481331988e-07,0.2078737969003844
4.1271442986881934e-07,0.21067858024817146
4.137235116044399e-07,0.213017856218941
4.1473259334006053e-07,0.21488058498772358
4.157416750756811e-07,0.21625969316279783
4.1675075681130167e-07,0.21715182538020467
4.177598385469223e-07,0.217557133741784
4.1876892028254286e-07,0.2174790982467672
4.197780020181634e-07,0.21692437277695092
4.2078708375378405e-07,0.215902652393201
4.217961654894046e-07,0.21442655870061175
4.228052472250252e-07,0.21251154085933976
4.238143289606458e-07,0.21017579047356316
4.2482341069626637e-07,0.20744016909074023
4.2583249243188694e-07,0.2043281473857648
4.268415741675075e-07,0.20086575527487574
4.2785065590312813e-07,0.19708154217080884
4.288597376387487e-07,0.19300654630150843
4.2986881937436927e-07,0.18867427139227566
4.308779011099899e-07,0.1841206679482297
4.3188698284561046e-07,0.17938411473043597
4.32896064581231e-07,0.17450539362431677
4.3390514631685165e-07,0.16952764776400675
4.349142280524722e-07,0.16449630832586568
4.359233097880928e-07,0.15945896974197576
4.369323915237134e-07,0.15446518630771663
4.3794147325933397e-07,0.1495661557389339
4.3895055499495454e-07,0.14481424827005449
4.3995963673057516e-07,0.14026233537474628
4.4096871846619573e-07,0.1359628732381264
4.419778002018163e-07,0.13196670681227848
4.429868819374369e-07,0.12832158499178445
4.439959636730575e-07,0.12507041904514402
4.4500504540867806e-07,0.12224937371924723
4.460141271442987e-07,0.11988594527819299
4.4702320887991925e-07,0.11799723698331907
4.480322906155398e-07,0.11658866877932116
4.4904137235116043e-07,0.11565333535924516
4.50050454086781e-07,0.11517214931714567
4.5105953582240157e-07,0.11511478755616113
4.520686175580222e-07,0.11544133081113755
4.5307769929364276e-07,0.11610438460695281
4.5408678102926333e-07,0.11705142120948685
4.550958627648839e-07,0.11822709172864601
4.561049445005045e-07,0.11957531173957468
4.571140262361251e-07,0.12104099895476918
4.5812310797174565e-07,0.1225714150879981
4.591321897073663e-07,0.12411712160557765
4.6014127144298684e-07,0.12563259540660343
4.611503531786074e-07,0.1270765673585567
4.6215943491422803e-07,0.12841214915837798
4.631685166498486e-07,0.12960680785430143
4.6417759838546917e-07,0.13063223719974873
4.651866801210898e-07,0.13146416396737895
4.6619576185671036e-07,0.1320821172135478
4.6720484359233093e-07,0.13246918003921518
4.6821392532795155e-07,0.13261173681247518
4.692230070635721e-07,0.13249922394426164
4.702320887991927e-07,0.13212388885268975
4.712411705348133e-07,0.13148055939979353
4.722502522704339e-07,0.1305664245544157
4.7325933400605444e-07,0.12938082609455248
4.7426841574167506e-07,0.12792506063194573
4.7527749747729563e-07,0.1262021909880236
4.762865792129162e-07,0.12421686587785258
