Time,Signal
0.0,0.3584441146706053
1.0090817356205852e-09,0.3635192066973916
2.0181634712411704e-09,0.36845102481203323
3.0272452068617556e-09,0.3732333344904605
4.036326942482341e-09,0.37786002113571837
5.0454086781029255e-09,0.3823250951701728
6.054490413723511e-09,0.3866226971279965
7.063572149344097e-09,0.39074710273596663
8.072653884964682e-09,0.3946927279713824
9.081735620585266e-09,0.39845413408663344
1.0090817356205851e-08,0.40202603259064823
1.1099899091826438e-08,0.40540329017810667
1.2108980827447022e-08,0.40858093359794084
1.3118062563067607e-08,0.41155415445325805
1.4127144298688194e-08,0.4143183139254285
1.5136226034308778e-08,0.4168689474156581
1.6145307769929363e-08,0.4192017690979636
1.7154389505549948e-08,0.42131267637805114
1.8163471241170533e-08,0.42319775425318684
1.9172552976791117e-08,0.4248532795687631
2.0181634712411702e-08,0.42627572516788687
2.119071644803229e-08,0.4274617639309593
2.2199798183652875e-08,0.4284082727029102
2.320887991927346e-08,0.4291123361064734
2.4217961654894045e-08,0.42957125024065557
2.522704339051463e-08,0.4297825262644037
2.6236125126135214e-08,0.4297438938663758
2.72452068617558e-08,0.4294533046227172
2.8254288597376387e-08,0.42890893524585993
2.9263370332996972e-08,0.4281091907285666
3.0272452068617557e-08,0.42705270738883355
3.128153380423814e-08,0.42573835582279124
3.2290615539858726e-08,0.42416524377450376
3.3299697275479314e-08,0.42233271893354024
3.4308779011099896e-08,0.4202403716734869
3.5317860746720484e-08,0.41788803774716504
3.6326942482341065e-08,0.4152758009573625
3.7336024217961653e-08,0.41240399582538095
3.8345105953582235e-08,0.4092732102838146
3.935418768920282e-08,0.40588428842474966
4.0363269424823404e-08,0.40223833334023296
4.137235116044399e-08,0.39833671009851174
4.238143289606458e-08,0.3941810489074515
4.339051463168516e-08,0.38977324852595163
4.439959636730575e-08,0.3851154799954366
4.540867810292633e-08,0.3802101907770223
4.641775983854692e-08,0.3750601093962584
4.74268415741675e-08,0.3696682507170966
4.843592330978809e-08,0.36403792199075125
4.944500504540868e-08,0.358172729854453
5.045408678102926e-08,0.35207658849109646
5.146316851664985e-08,0.3457537292051371
5.247225025227043e-08,0.3392087117250312
5.3481331987891016e-08,0.33244643761083603
5.44904137235116e-08,0.3254721662310039
5.5499495459132186e-08,0.31829153387969744
5.6508577194752774e-08,0.3109105767414045
5.7517658930373355e-08,0.30333575858151207
5.8526740665993944e-08,0.2955740042607462
5.9535822401614525e-08,0.2876327404525011
6.054490413723511e-08,0.27951994530447827
6.15539858728557e-08,0.2712442092556387
6.256306760847628e-08,0.26281480983116023
6.357214934409687e-08,0.2542418040388312
6.458123107971745e-08,0.24553614304347116
6.559031281533803e-08,0.23670981518690956
6.659939455095863e-08,0.22777602526436533
6.760847628657921e-08,0.21874942041630752
6.861755802219979e-08,0.2096463762480572
6.962663975782037e-08,0.20048536110250512
7.063572149344097e-08,0.19128740209337422
7.164480322906155e-08,0.18207668389503917
7.265388496468213e-08,0.17288132066253134
7.366296670030273e-08,0.16373435283515855
7.467204843592331e-08,0.15467503321300935
7.568113017154389e-08,0.14575047803581997
7.669021190716447e-08,0.13701776237594435
7.769929364278506e-08,0.1285465206584461
7.870837537840565e-08,0.12042204370228789
7.971745711402623e-08,0.11274869095589751
8.072653884964681e-08,0.10565307908691188
8.17356205852674e-08,0.09928587479134408
8.274470232088798e-08,0.09382010722357952
8.375378405650857e-08,0.08944305223137886
8.476286579212916e-08,0.08633891941982472
8.577194752774974e-08,0.08466233010602137
8.678102926337032e-08,0.08450839309486453
8.77901109989909e-08,0.0858908472411427
8.87991927346115e-08,0.08873901798806454
8.980827447023208e-08,0.09291517666104383
9.081735620585266e-08,0.09824337153585794
9.182643794147326e-08,0.10453762203101129
9.283551967709384e-08,0.1116218923193804
9.384460141271442e-08,0.1193405194748921
9.4853683148335e-08,0.1275614042853449
9.58627648839556e-08,0.1361749996963957
9.687184661957618e-08,0.14509143042420897
9.788092835519676e-08,0.1542371334167767
9.889001009081735e-08,0.16355169833384806
9.989909182643794e-08,0.17298516580684106
1.0090817356205852e-07,0.18249582841376466
1.019172552976791e-07,0.19204848813519768
1.029263370332997e-07,0.20161309497282162
1.0393541876892028e-07,0.2111636904052507
1.0494450050454086e-07,0.2206775890579351
1.0595358224016145e-07,0.23013474429462893
1.0696266397578203e-07,0.2395172550457436
1.0797174571140261e-07,0.2488089809574584
1.089808274470232e-07,0.2579952407302786
1.0998990918264379e-07,0.2670625745417633
1.1099899091826437e-07,0.275998556039709
1.1200807265388495e-07,0.284791642862464
1.1301715438950555e-07,0.2934310572573792
1.1402623612512613e-07,0.3019066903373027
1.1503531786074671e-07,0.31020902500041664
1.1604439959636729e-07,0.3183290736627765
1.1705348133198789e-07,0.3262583278068954
1.1806256306760847e-07,0.33398871700145416
1.1907164480322905e-07,0.3415125755470458
1.2008072653884963e-07,0.3488226152881469
1.2108980827447023e-07,0.3559119034300424
1.2209889001009082e-07,0.36277384443198774
1.231079717457114e-07,0.36940216522997404
1.2411705348133198e-07,0.37579090318579295
1.2512613521695255e-07,0.3819343962724832
1.2613521695257315e-07,0.3878272750964032
1.2714429868819374e-07,0.3934644564282039
1.281533804238143e-07,0.3988411379728253
1.291624621594349e-07,0.403952794155292
1.301715438950555e-07,0.40879517273688987
1.3118062563067607e-07,0.41336429210709386
1.3218970736629666e-07,0.4176564391217777
1.3319878910191726e-07,0.42166816737890306
1.3420787083753783e-07,0.42539629583993355
1.3521695257315842e-07,0.4288379077193283
1.36226034308779e-07,0.4319903495762119
1.3723511604439958e-07,0.43485123055211683
1.3824419778002018e-07,0.43741842170691336
1.3925327951564075e-07,0.43969005541195694
1.4026236125126134e-07,0.44166452476533874
1.4127144298688194e-07,0.4433404829990792
1.422805247225025e-07,0.44471684285234564
1.432896064581231e-07,0.44579277588838895
1.442986881937437e-07,0.44656771173601734
1.4530776992936426e-07,0.4470413372391018
1.4631685166498486e-07,0.44721359549995815
1.4732593340060545e-07,0.44708468480446956
1.4833501513622602e-07,0.4466550574186046
1.4934409687184661e-07,0.4459254182475514
1.5035317860746718e-07,0.444896723350087
1.5136226034308778e-07,0.44357017830202733
1.5237134207870837e-07,0.44194723640372785
1.5338042381432894e-07,0.44002959672760067
1.5438950554994953e-07,0.4378192020025329
1.5539858728557013e-07,0.4353182363329224
1.564076690211907e-07,0.4325291227508341
1.574167507568113e-07,0.429454520600495
1.5842583249243189e-07,0.42609732275504103
1.5943491422805245e-07,0.42246065266608673
1.6044399596367305e-07,0.4185478612473244
1.6145307769929362e-07,0.41436252359399584
1.624621594349142e-07,0.40990843554070483
1.634712411705348e-07,0.4051896100606963
1.6448032290615538e-07,0.4002102735103815
1.6548940464177597e-07,0.39497486172361507
1.6649848637739656e-07,0.38948801596098354
1.6750756811301713e-07,0.3837545787202171
1.6851664984863773e-07,0.37777958941477197
1.6952573158425832e-07,0.3715682799287134
1.705348133198789e-07,0.3651260700572716
1.7154389505549948e-07,0.3584585628439097
1.7255297679112008e-07,0.3515715398264901
1.7356205852674065e-07,0.3444709562072397
1.7457114026236124e-07,0.3371629359637877
1.755802219979818e-07,0.3296537669217471
1.765893037336024e-07,0.3219498958132822
1.77598385469223e-07,0.3140579233511276
1.7860746720484357e-07,0.30598459935390443
1.7961654894046416e-07,0.2977368179667808
1.8062563067608476e-07,0.2893216130321506
1.8163471241170533e-07,0.28074615367890693
1.8264379414732592e-07,0.2720177402172403
1.8365287588294652e-07,0.2631438004503898
1.8466195761856708e-07,0.2541318865477376
1.8567103935418768e-07,0.24498967266857244
1.8668012108980827e-07,0.2357249535876917
1.8768920282542884e-07,0.22634564466023577
1.8869828456104944e-07,0.21685978358490432
1.8970736629667e-07,0.2072755345990061
1.907164480322906e-07,0.19760119599213477
1.917255297679112e-07,0.18784521219946343
1.9273461150353176e-07,0.17801619229825844
1.9374369323915236e-07,0.16812293759356492
1.9475277497477295e-07,0.15817448232920747
1.9576185671039352e-07,0.14818015372428375
1.9677093844601411e-07,0.1381496610951024
1.977800201816347e-07,0.12809322985022636
1.9878910191725528e-07,0.11802180669001722
1.9979818365287587e-07,0.10794738147419172
2.0080726538849644e-07,0.09788350741503368
2.0181634712411703e-07,0.08784617307418956
2.0282542885973763e-07,0.07785533022285575
2.038345105953582e-07,0.06793771818856906
2.048435923309788e-07,0.05813243572918054
2.058526740665994e-07,0.04850283860131427
2.0686175580221996e-07,0.0391644873985186
2.0787083753784055e-07,0.0303583126372456
2.0887991927346114e-07,0.02265973215119849
2.098890010090817e-07,0.017503818691363675
2.108980827447023e-07,0.017228199509565015
2.119071644803229e-07,0.021922387570947815
2.1291624621594347e-07,0.029206379736590005
2.1392532795156407e-07,0.0375343442723399
2.1493440968718463e-07,0.04628467956303222
2.1594349142280523e-07,0.05520048524889706
2.1695257315842582e-07,0.06416054681866691
2.179616548940464e-07,0.07309968015393892
2.1897073662966699e-07,0.0819786040738491
2.1997981836528758e-07,0.09077122817096869
2.2098890010090815e-07,0.09945874236755668
2.2199798183652874e-07,0.10802663806157121
2.2300706357214934e-07,0.11646310373380127
2.240161453077699e-07,0.12475811210459078
2.250252270433905e-07,0.13290287651509572
2.260343087790111e-07,0.14088951460475144
2.2704339051463166e-07,0.14871083348065547
2.2805247225025226e-07,0.1563601887749144
2.2906155398587283e-07,0.16383139010445702
2.3007063572149342e-07,0.1711186364995655
2.3107971745711402e-07,0.17821647166778046
2.3208879919273458e-07,0.18511975267140798
2.3309788092835518e-07,0.19182362784826965
2.3410696266397577e-07,0.19832352120733376
2.3511604439959634e-07,0.20461512142483437
2.3612512613521694e-07,0.21069437414889097
2.3713420787083753e-07,0.21655747670758363
2.381432896064581e-07,0.22220087457718757
2.391523713420787e-07,0.22762125914730544
2.4016145307769926e-07,0.23281556644539655
2.411705348133199e-07,0.23778097657234512
2.4217961654894045e-07,0.24251491366477795
2.43188698284561e-07,0.24701504624650505
2.4419778002018164e-07,0.2512792878659073
2.452068617558022e-07,0.25530579794184405
2.462159434914228e-07,0.25909298276019144
2.4722502522704335e-07,0.2626394965781431
2.4823410696266397e-07,0.2659442428051367
2.4924318869828454e-07,0.26900637523860604
2.502522704339051e-07,0.2718252993403196
2.512613521695257e-07,0.27440067354533076
2.522704339051463e-07,0.276732410600881
2.5327951564076686e-07,0.2788206789372428
2.542885973763875e-07,0.28066590407662917
2.5529767911200805e-07,0.282268770090146
2.563067608476286e-07,0.2836302211163947
2.5731584258324924e-07,0.2847514629588828
2.583249243188698e-07,0.2856339647829367
2.593340060544904e-07,0.28627946093642415
2.60343087790111e-07,0.28668995292232274
2.6135216952573157e-07,0.28686771155509994
2.6236125126135213e-07,0.28681527933703477
2.6337033299697276e-07,0.28653547309506777
2.643794147325933e-07,0.28603138692355257
2.653884964682139e-07,0.28530639548345244
2.663975782038345e-07,0.28436415771409895
2.674066599394551e-07,0.2832086210196519
2.6841574167507565e-07,0.28184402599888386
2.6942482341069627e-07,0.28027491179385605
2.7043390514631684e-07,0.27850612214046805
2.714429868819374e-07,0.2765428122116809
2.72452068617558e-07,0.27439045635237974
2.734611503531786e-07,0.27205485681322444
2.7447023208879917e-07,0.2695421535992305
2.7547931382441973e-07,0.26685883555694745
2.7648839556004035e-07,0.2640117528315535
2.774974772956609e-07,0.2610081308313699
2.785065590312815e-07,0.25785558584144697
2.795156407669021e-07,0.2545621424289204
2.805247225025227e-07,0.2511362527793562
2.8153380423814325e-07,0.24758681809343794
2.8254288597376387e-07,0.24392321215465398
2.8355196770938444e-07,0.2401553071479937
2.84561049445005e-07,0.2362935017630355
2.8557013118062563e-07,0.23234875154720255
2.865792129162462e-07,0.2283326013801736
2.8758829465186676e-07,0.22425721981087862
2.885973763874874e-07,0.22013543482533618
2.8960645812310795e-07,0.21598077038646935
2.906155398587285e-07,0.2118074827947765
2.9162462159434914e-07,0.20763059554969845
2.926337033299697e-07,0.20346593093510096
2.936427850655903e-07,0.19933013600081098
2.946518668012109e-07,0.1952406999641538
2.9566094853683147e-07,0.1912159593201801
2.9667003027245204e-07,0.18727508615269436
2.976791120080726e-07,0.18343805433048607
2.9868819374369323e-07,0.17972557753686785
2.996972754793138e-07,0.17615901253831678
3.0070635721493436e-07,0.17276022091641172
3.01715438950555e-07,0.1695513828741677
3.0272452068617555e-07,0.16655475791646657
3.037336024217961e-07,0.16379238941944385
3.0474268415741674e-07,0.16128575350718413
3.057517658930373e-07,0.15905535727038372
3.067608476286579e-07,0.15712029699627078
3.077699293642785e-07,0.15549779325241375
3.0877901109989907e-07,0.15420272559720866
3.0978809283551964e-07,0.1532471943589255
3.1079717457114026e-07,0.1526401392474619
3.118062563067608e-07,0.1523870436394222
3.128153380423814e-07,0.15248974877630025
3.13824419778002e-07,0.15294639408558236
3.148335015136226e-07,0.15375148935205046
3.1584258324924315e-07,0.1548961130728124
3.1685166498486377e-07,0.15636822078569684
3.1786074672048434e-07,0.15815303902825467
3.188698284561049e-07,0.16023351587301415
3.1987891019172553e-07,0.16259079797517248
3.208879919273461e-07,0.165204706353035
3.2189707366296667e-07,0.1680541878074
3.2290615539858723e-07,0.17111772488035062
3.2391523713420786e-07,0.17437369352127663
3.249243188698284e-07,0.17780066336642578
3.25933400605449e-07,0.18137764025078187
3.269424823410696e-07,0.1850842540514859
3.279515640766902e-07,0.1889008972296661
3.2896064581231075e-07,0.19280882065427554
3.2996972754793137e-07,0.19679019368582285
3.3097880928355194e-07,0.2008281353081137
3.319878910191725e-07,0.2049067225354392
3.3299697275479313e-07,0.20901098156259004
3.340060544904137e-07,0.2131268662917814
3.3501513622603427e-07,0.21724122804920265
3.360242179616549e-07,0.2213417795461271
3.3703329969727545e-07,0.22541705547210197
3.38042381432896e-07,0.22945637154013984
3.3905146316851664e-07,0.2334497833344507
3.400605449041372e-07,0.23738804593215115
3.410696266397578e-07,0.2412625749704968
3.420787083753784e-07,0.2450654095984671
3.4308779011099897e-07,0.24878917757438448
3.4409687184661954e-07,0.2524270626389973
3.4510595358224016e-07,0.25597277419693565
3.4611503531786073e-07,0.2594205192708168
3.471241170534813e-07,0.2627649766451873
3.481331987891019e-07,0.2660012730866894
3.491422805247225e-07,0.2691249615082863
3.5015136226034305e-07,0.27213200093579026
3.511604439959636e-07,0.27501873813183414
3.5216952573158424e-07,0.2777818907338787
3.531786074672048e-07,0.28041853176742915
3.541876892028254e-07,0.2829260754022071
3.55196770938446e-07,0.2853022638268533
3.5620585267406657e-07,0.2875451551261617
3.5721493440968714e-07,0.2896531120535205
3.5822401614530776e-07,0.2916247915998003
3.592330978809283e-07,0.29345913526823686
3.602421796165489e-07,0.2951553599727425
3.612512613521695e-07,0.29671294948447813
3.622603430877901e-07,0.2981316463583986
3.6326942482341065e-07,0.29941144427779964
3.6427850655903127e-07,0.30055258076068264
3.6528758829465184e-07,0.30155553017701064
3.662966700302724e-07,0.30242099703067166
3.6730575176589303e-07,0.30314990946424597
3.683148335015136e-07,0.30374341294849
3.6932391523713417e-07,0.3042028641218655
3.703329969727548e-07,0.304529824748459
3.7134207870837536e-07,0.30472605576530515
3.723511604439959e-07,0.3047935113924686
3.7336024217961655e-07,0.30473433328127547
3.743693239152371e-07,0.3045508446778491
3.753784056508577e-07,0.3042455445806262
3.7638748738647825e-07,0.3038211018718053
3.7739656912209887e-07,0.3032803494037744
3.7840565085771944e-07,0.3026262780224434
3.7941473259334e-07,0.3018620305101573
3.8042381432896063e-07,0.300990895431441
3.814328960645812e-07,0.3000163008652904
3.8244197780020177e-07,0.2989418080080934
3.834510595358224e-07,0.29777110463152723
3.8446014127144296e-07,0.29650799838001596
3.854692230070635e-07,0.29515640989249714
3.8647830474268415e-07,0.2937203657334393
3.874873864783047e-07,0.2922039911182404
3.884964682139253e-07,0.29061150241838546
3.895055499495459e-07,0.28894719943208574
3.9051463168516647e-07,0.28721545740657045
3.9152371342078704e-07,0.2854207187988291
3.9253279515640766e-07,0.283567484762434
3.9354187689202823e-07,0.2816603063491513
3.945509586276488e-07,0.2797037754154333
3.955600403632694e-07,0.2777025152256268
3.9656912209889e-07,0.27566117074585944
3.9757820383451055e-07,0.27358439862518025
3.985872855701312e-07,0.2714768568636066
3.9959636730575174e-07,0.26934319417038904
4.006054490413723e-07,0.2671880390200435
4.016145307769929e-07,0.2650159884185418
4.026236125126135e-07,0.2628315963975532
4.0363269424823407e-07,0.2606393622607679
4.0464177598385464e-07,0.2584437186130854
4.0565085771947526e-07,0.25624901921081894
4.0665993945509583e-07,0.2540595266789521
4.076690211907164e-07,0.2518794001498109
4.08678102926337e-07,0.24971268288617746
4.096871846619576e-07,0.2475632899606846
4.1069626639757815e-07,0.24543499607214364
4.117053481331988e-07,0.2433314235880284
4.1271442986881934e-07,0.24125603091042214
4.137235116044399e-07,0.23921210127007259
4.1473259334006053e-07,0.2372027320594777
4.157416750756811e-07,0.23523082482086044
4.1675075681130167e-07,0.23329907600817468
4.177598385469223e-07,0.2314099686436235
4.1876892028254286e-07,0.22956576498832304
4.197780020181634e-07,0.22776850034347249
4.2078708375378405e-07,0.2260199780925499
4.217961654894046e-07,0.22432176608654228
4.228052472250252e-07,0.222675194463033
4.238143289606458e-07,0.2210813549761961
4.2482341069626637e-07,0.21954110189855125
4.2583249243188694e-07,0.21805505453700064
4.268415741675075e-07,0.21662360138554929
4.2785065590312813e-07,0.21524690591566167
4.288597376387487e-07,0.21392491398291702
4.2986881937436927e-07,0.21265736280607503
4.308779011099899e-07,0.21144379145240189
4.3188698284561046e-07,0.21028355274173796
4.32896064581231e-07,0.2091758264618457
4.3390514631685165e-07,0.2081196337695759
4.349142280524722e-07,0.20711385263675008
4.359233097880928e-07,0.2061572341867433
4.369323915237134e-07,0.20524841975778163
4.3794147325933397e-07,0.20438595852210156
4.3895055499495454e-07,0.20356832548637332
4.3995963673057516e-07,0.20279393969807508
4.4096871846619573e-07,0.20206118248469243
4.419778002018163e-07,0.20136841555738727
4.429868819374369e-07,0.2007139988178856
4.439959636730575e-07,0.20009630771634968
4.4500504540867806e-07,0.19951375001857308
4.460141271442987e-07,0.19896478185254501
4.4702320887991925e-07,0.19844792291689037
4.480322906155398e-07,0.1979617707465266
4.4904137235116043e-07,0.19750501394375702
4.50050454086781e-07,0.1970764442956618
4.5105953582240157e-07,0.19667496771079687
4.520686175580222e-07,0.19629961391971448
4.5307769929364276e-07,0.19594954489452604
4.5408678102926333e-07,0.19562406195258755
4.550958627648839e-07,0.1953226115183837
4.561049445005045e-07,0.19504478952583595
4.571140262361251e-07,0.19479034445065793
4.5812310797174565e-07,0.19455917896910532
4.591321897073663e-07,0.1943513502456934
4.6014127144298684e-07,0.19416706885828758
4.611503531786074e-07,0.19400669637462298
4.6215943491422803e-07,0.1938707415999175
4.631685166498486e-07,0.193759855520989
4.6417759838546917e-07,0.19367482497832028
4.651866801210898e-07,0.19361656510396946
4.6619576185671036e-07,0.19358611057021885
4.6720484359233093e-07,0.1935846057014454
4.6821392532795155e-07,0.1936132935099356
4.692230070635721e-07,0.1936735037252506
4.702320887991927e-07,0.1937666398961957
4.712411705348133e-07,0.19389416565437514
4.722502522704339e-07,0.19405759023855193
4.7325933400605444e-07,0.19425845338936945
4.7426841574167506e-07,0.19449830973416227
4.7527749747729563e-07,0.19477871279131018
4.762865792129162e-07,0.19510119873251305
4.772956609485368e-07,0.1954672700491586
4.783047426841574e-07,0.19587837927524132
4.79313824419778e-07,0.19633591292374478
