Time,Signal
0.0,0.1710645663935433
1.0090817356205852e-09,0.17132408322850548
2.0181634712411704e-09,0.17146845333030233
3.0272452068617556e-09,0.171495119146271
4.036326942482341e-09,0.17140173101553294
5.0454086781029255e-09,0.17118614440484645
6.054490413723511e-09,0.17084641722257926
7.063572149344097e-09,0.17038080720607401
8.072653884964682e-09,0.16978776937611836
9.081735620585266e-09,0.16906595355117104
1.0090817356205851e-08,0.1682142019133043
1.1099899091826438e-08,0.16723154661747047
1.2108980827447022e-08,0.16611720743559402
1.3118062563067607e-08,0.16487058942710645
1.4127144298688194e-08,0.1634912806278249
1.5136226034308778e-08,0.1619790497495051
1.6145307769929363e-08,0.16033384388295976
1.7154389505549948e-08,0.1585557861982929
1.8163471241170533e-08,0.15664517363657657
1.9172552976791117e-08,0.15460247458816792
2.0181634712411702e-08,0.1524283265538562
2.119071644803229e-08,0.15012353378614596
2.2199798183652875e-08,0.1476890649092644
2.320887991927346e-08,0.1451260505179564
2.4217961654894045e-08,0.14243578075686703
2.522704339051463e-08,0.13961970288438816
2.6236125126135214e-08,0.13667941882736256
2.72452068617558e-08,0.13361668273617466
2.8254288597376387e-08,0.13043339855369596
2.9263370332996972e-08,0.1271316176166213
3.0272452068617557e-08,0.12371353631433098
3.128153380423814e-08,0.1201814938391765
3.2290615539858726e-08,0.11653797007384058
3.3299697275479314e-08,0.11278558367751047
3.4308779011099896e-08,0.10892709045483148
3.5317860746720484e-08,0.10496538212291703
3.6326942482341065e-08,0.10090348563633353
3.7336024217961653e-08,0.09674456329479321
3.8345105953582235e-08,0.09249191395391451
3.935418768920282e-08,0.08814897580318297
4.0363269424823404e-08,0.0837193313957233
4.137235116044399e-08,0.07920671596006645
4.238143289606458e-08,0.07461503057892062
4.339051463168516e-08,0.06994836273480019
4.439959636730575e-08,0.06521101827650826
4.540867810292633e-08,0.06040757159084769
4.641775983854692e-08,0.055542945747276175
4.74268415741675e-08,0.05062254388524839
4.843592330978809e-08,0.045652472173527185
4.944500504540868e-08,0.040639935240294425
5.045408678102926e-08,0.0355939776427804
5.146316851664985e-08,0.0305269754522124
5.247225025227043e-08,0.02545791869987733
5.3481331987891016e-08,0.02042053016102122
5.44904137235116e-08,0.01548671314037451
5.5499495459132186e-08,0.010849502879441636
5.6508577194752774e-08,0.007177706748623406
5.7517658930373355e-08,0.006478752498472622
5.8526740665993944e-08,0.009465551158863576
5.9535822401614525e-08,0.013953945168803964
6.054490413723511e-08,0.018906372028464593
6.15539858728557e-08,0.024036267428697848
6.256306760847628e-08,0.029245817715112022
6.357214934409687e-08,0.034492181343999305
6.458123107971745e-08,0.039752417713517986
6.559031281533803e-08,0.04501208771407089
6.659939455095863e-08,0.05026085889973135
6.760847628657921e-08,0.05549057923568716
6.861755802219979e-08,0.060694346036633165
6.962663975782037e-08,0.06586602035216775
7.063572149344097e-08,0.07099995803200462
7.164480322906155e-08,0.07609085356126236
7.265388496468213e-08,0.08113364596118264
7.366296670030273e-08,0.08612346049045629
7.467204843592331e-08,0.09105557183706466
7.568113017154389e-08,0.09592538065882487
7.669021190716447e-08,0.10072839866298357
7.769929364278506e-08,0.10546023928854059
7.870837537840565e-08,0.11011661214571312
7.971745711402623e-08,0.11469332002199258
8.072653884964681e-08,0.11918625766867179
8.17356205852674e-08,0.12359141183767187
8.274470232088798e-08,0.12790486220417427
8.375378405650857e-08,0.13212278291999807
8.476286579212916e-08,0.1362414446163321
8.577194752774974e-08,0.1402572167248762
8.678102926337032e-08,0.1441665700215489
8.77901109989909e-08,0.14796607932172914
8.87991927346115e-08,0.15165242627377465
8.980827447023208e-08,0.1552224022104952
9.081735620585266e-08,0.15867291102778192
9.182643794147326e-08,0.16200097206672678
9.283551967709384e-08,0.1652037229809741
9.384460141271442e-08,0.16827842257521072
9.4853683148335e-08,0.17122245360397734
9.58627648839556e-08,0.1740333255225988
9.687184661957618e-08,0.17670867718416222
9.788092835519676e-08,0.1792462794782713
9.889001009081735e-08,0.1816440379088278
9.989909182643794e-08,0.1838999951094707
1.0090817356205852e-07,0.18601233329652508
1.019172552976791e-07,0.18797937666049083
1.029263370332997e-07,0.18979959369821917
1.0393541876892028e-07,0.1914715994890527
1.0494450050454086e-07,0.1929941579193314
1.0595358224016145e-07,0.1943661838608564
1.0696266397578203e-07,0.1955867453101502
1.0797174571140261e-07,0.19665506549668788
1.089808274470232e-07,0.19757052496972802
1.0998990918264379e-07,0.19833266367495866
1.1099899091826437e-07,0.1989411830339327
1.1200807265388495e-07,0.19939594804121058
1.1301715438950555e-07,0.19969698939630973
1.1402623612512613e-07,0.19984450569000084
1.1503531786074671e-07,0.1998388656672373
1.1604439959636729e-07,0.1996806105921165
1.1705348133198789e-07,0.1993704567437826
1.1806256306760847e-07,0.19890929807617863
1.1907164480322905e-07,0.198298209079103
1.2008072653884963e-07,0.19753844788319727
1.2108980827447023e-07,0.19663145965741805
1.2209889001009082e-07,0.19557888035429433
1.231079717457114e-07,0.19438254086601797
1.2411705348133198e-07,0.1930444716632649
1.2512613521695255e-07,0.19156690799880108
1.2613521695257315e-07,0.18995229576955353
1.2714429868819374e-07,0.1882032981441503
1.281533804238143e-07,0.1863228030781803
1.291624621594349e-07,0.18431393185686143
1.301715438950555e-07,0.18218004882468686
1.3118062563067607e-07,0.17992477248424577
1.3218970736629666e-07,0.1775519881720445
1.3319878910191726e-07,0.17506586254802997
1.3420787083753783e-07,0.1724708601678163
1.3521695257315842e-07,0.1697717624423869
1.36226034308779e-07,0.16697368932908085
1.3723511604439958e-07,0.1640821241395326
1.3824419778002018e-07,0.16110294189379454
1.3925327951564075e-07,0.15804244169338538
1.4026236125126134e-07,0.15490738362642387
1.4127144298688194e-07,0.1517050307507079
1.422805247225025e-07,0.1484431967184937
1.432896064581231e-07,0.14513029959944387
1.442986881937437e-07,0.14177542241072724
1.4530776992936426e-07,0.13838838075436286
1.4631685166498486e-07,0.1349797977622459
1.4732593340060545e-07,0.13156118621914542
1.4833501513622602e-07,0.1281450372210386
1.4934409687184661e-07,0.12474491396402325
1.5035317860746718e-07,0.1213755481673389
1.5136226034308778e-07,0.11805293512224237
1.5237134207870837e-07,0.11479442133689113
1.5338042381432894e-07,0.11161877614909706
1.5438950554994953e-07,0.10854623549906935
1.5539858728557013e-07,0.10559850241228523
1.564076690211907e-07,0.10279868496781665
1.574167507568113e-07,0.10017114926210613
1.5842583249243189e-07,0.09774126316773192
1.5943491422805245e-07,0.09553500799811578
1.6044399596367305e-07,0.09357844126325772
1.6145307769929362e-07,0.09189700613228634
1.624621594349142e-07,0.09051470270386787
1.634712411705348e-07,0.08945316155938415
1.6448032290615538e-07,0.0887306874987718
1.6548940464177597e-07,0.08836136430838043
1.6649848637739656e-07,0.0883543220354148
1.6750756811301713e-07,0.08871326015314777
1.6851664984863773e-07,0.08943629148172311
1.6952573158425832e-07,0.09051612764272224
1.705348133198789e-07,0.09194057767886336
1.7154389505549948e-07,0.0936932896679144
1.7255297679112008e-07,0.09575464026495223
1.7356205852674065e-07,0.09810267261108051
1.7457114026236124e-07,0.10071399611528595
1.755802219979818e-07,0.1035645854032677
1.765893037336024e-07,0.10663044259217076
1.77598385469223e-07,0.10988811104496701
1.7860746720484357e-07,0.11331504665673528
1.7961654894046416e-07,0.1168898637931605
1.8062563067608476e-07,0.12059247813479763
1.8163471241170533e-07,0.1244041694858082
1.8264379414732592e-07,0.12830758573539722
1.8365287588294652e-07,0.13228670596200462
1.8466195761856708e-07,0.1363267770828412
1.8567103935418768e-07,0.14041423503869657
1.8668012108980827e-07,0.14453661854736002
1.8768920282542884e-07,0.14868248105318962
1.8869828456104944e-07,0.15284130463205814
1.8970736629667e-07,0.1570034182139086
1.907164480322906e-07,0.1611599214748577
1.917255297679112e-07,0.16530261504335106
1.9273461150353176e-07,0.16942393718640344
1.9374369323915236e-07,0.1735169068315967
1.9475277497477295e-07,0.1775750725904967
1.9576185671039352e-07,0.18159246734311515
1.9677093844601411e-07,0.18556356789415762
1.977800201816347e-07,0.18948325920057482
1.9878910191725528e-07,0.19334680268257448
1.9979818365287587e-07,0.19714980815714903
2.0080726538849644e-07,0.2008882089677771
2.0181634712411703e-07,0.2045582399218876
2.0282542885973763e-07,0.20815641768612558
2.038345105953582e-07,0.21167952332667012
2.048435923309788e-07,0.2151245867168142
2.058526740665994e-07,0.2184888725661913
2.0686175580221996e-07,0.22176986785523709
2.0787083753784055e-07,0.22496527048467713
2.0887991927346114e-07,0.22807297897320353
2.098890010090817e-07,0.23109108305718862
2.108980827447023e-07,0.23401785506456463
2.119071644803229e-07,0.23685174195106723
2.1291624621594347e-07,0.23959135790117894
2.1392532795156407e-07,0.24223547740850443
2.1493440968718463e-07,0.2447830287611958
2.1594349142280523e-07,0.2472330878676027
2.1695257315842582e-07,0.24958487236571936
2.179616548940464e-07,0.25183773596738407
2.1897073662966699e-07,0.2539911629947102
2.1997981836528758e-07,0.25604476307197366
2.2098890010090815e-07,0.2579982659412897
2.2199798183652874e-07,0.25985151637493886
2.2300706357214934e-07,0.26160446916125235
2.240161453077699e-07,0.2632571841445769
2.250252270433905e-07,0.264809821303108
2.260343087790111e-07,0.26626263585130705
2.2704339051463166e-07,0.2676159733562961
2.2805247225025226e-07,0.2688702648600483
2.2906155398587283e-07,0.27002602200142756
2.3007063572149342e-07,0.27108383213417553
2.3107971745711402e-07,0.2720443534388474
2.3208879919273458e-07,0.2729083100284566
2.3309788092835518e-07,0.27367648704923375
2.3410696266397577e-07,0.27434972577944683
2.3511604439959634e-07,0.2749289187306681
2.3612512613521694e-07,0.27541500475724207
2.3713420787083753e-07,0.2758089641809817
2.381432896064581e-07,0.276111813939339
2.391523713420787e-07,0.27632460276642457
2.4016145307769926e-07,0.27644840641734125
2.411705348133199e-07,0.27648432294729364
2.4217961654894045e-07,0.27643346805788954
2.43188698284561e-07,0.276296970523937
2.4419778002018164e-07,0.27607596771485454
2.452068617558022e-07,0.2757716012255732
2.462159434914228e-07,0.27538501263250065
2.4722502522704335e-07,0.27491733939074076
2.4823410696266397e-07,0.2743697108893188
2.4924318869828454e-07,0.2737432446816533
2.502522704339051e-07,0.273039042908936
2.512613521695257e-07,0.2722581889344341
2.522704339051463e-07,0.2714017442070079
2.5327951564076686e-07,0.27047074537237564
2.542885973763875e-07,0.26946620165079443
2.5529767911200805e-07,0.2683890924999499
2.563067608476286e-07,0.2672403655818908
2.5731584258324924e-07,0.26602093505286123
2.583249243188698e-07,0.2647316801948658
2.593340060544904e-07,0.2633734444077667
2.60343087790111e-07,0.2619470345806713
2.6135216952573157e-07,0.26045322086134465
2.6236125126135213e-07,0.25889273684239333
2.6337033299697276e-07,0.2572662801830295
2.643794147325933e-07,0.2555745136853838
2.653884964682139e-07,0.2538180668446031
2.663975782038345e-07,0.25199753789238605
2.674066599394551e-07,0.25011349635422453
2.6841574167507565e-07,0.2481664861414526
2.6942482341069627e-07,0.24615702920033572
2.7043390514631684e-07,0.2440856297418745
2.714429868819374e-07,0.24195277907786097
2.72452068617558e-07,0.23975896109101996
2.734611503531786e-07,0.23750465836991327
2.7447023208879917e-07,0.23519035904273325
2.7547931382441973e-07,0.23281656434826403
2.7648839556004035e-07,0.23038379698723518
2.774974772956609e-07,0.22789261030315247
2.785065590312815e-07,0.22534359834855439
2.795156407669021e-07,0.22273740690067573
2.805247225025227e-07,0.22007474549978917
2.8153380423814325e-07,0.21735640059423003
2.8254288597376387e-07,0.21458324988839556
2.8355196770938444e-07,0.21175627800401964
2.84561049445005e-07,0.20887659358088467
2.8557013118062563e-07,0.2059454479609596
2.865792129162462e-07,0.20296425561983025
2.8758829465186676e-07,0.19993461653124048
2.885973763874874e-07,0.19685834067448515
2.8960645812310795e-07,0.19373747492009447
2.906155398587285e-07,0.19057433255622183
2.9162462159434914e-07,0.18737152574567342
2.926337033299697e-07,0.18413200123031298
2.936427850655903e-07,0.1808590796238107
2.946518668012109e-07,0.1775564986526005
2.9566094853683147e-07,0.17422846071452747
2.9667003027245204e-07,0.17087968511941057
2.976791120080726e-07,0.1675154653479377
2.9868819374369323e-07,0.16414173160441992
2.996972754793138e-07,0.16076511883100533
3.0070635721493436e-07,0.15739304017758435
3.01715438950555e-07,0.15403376565940458
3.0272452068617555e-07,0.15069650535410195
3.037336024217961e-07,0.14739149595659215
3.0474268415741674e-07,0.14413008878438863
3.057517658930373e-07,0.1409248363661525
3.067608476286579e-07,0.1377895735156792
3.077699293642785e-07,0.13473948727026772
3.0877901109989907e-07,0.13179116826669698
3.0978809283551964e-07,0.12896263410666453
3.1079717457114026e-07,0.1262733131817797
3.118062563067608e-07,0.1237439755657582
3.128153380423814e-07,0.12139659637339886
3.13824419778002e-07,0.1192541370316749
3.148335015136226e-07,0.11734023193299324
3.1584258324924315e-07,0.11567877267892326
3.1685166498486377e-07,0.1142933901028464
3.1786074672048434e-07,0.11320684549900449
3.188698284561049e-07,0.11244035616171556
3.1987891019172553e-07,0.1120128945817754
3.208879919273461e-07,0.11194051262824838
3.2189707366296667e-07,0.1122357485056879
3.2290615539858723e-07,0.11290717247903244
3.2391523713420786e-07,0.11395911615988605
3.249243188698284e-07,0.11539161075187797
3.25933400605449e-07,0.11720053557113382
3.269424823410696e-07,0.11937795427097186
3.279515640766902e-07,0.12191259725012539
3.2896064581231075e-07,0.12479043788980089
3.2996972754793137e-07,0.127995308410432
3.3097880928355194e-07,0.13150950695355648
3.319878910191725e-07,0.13531435830579197
3.3299697275479313e-07,0.13939070348304
3.340060544904137e-07,0.1437193056629549
3.3501513622603427e-07,0.14828117007308897
3.360242179616549e-07,0.1530577827219811
3.3703329969727545e-07,0.15803127732983716
3.38042381432896e-07,0.16318454192974058
3.3905146316851664e-07,0.16850127699174422
3.400605449041372e-07,0.17396601618190588
3.410696266397578e-07,0.1795641195124546
3.420787083753784e-07,0.1852817470384413
3.4308779011099897e-07,0.19110581965320453
3.4409687184661954e-07,0.19702397206976102
3.4510595358224016e-07,0.2030245018138521
3.4611503531786073e-07,0.20909631701483503
3.471241170534813e-07,0.2152288849525064
3.481331987891019e-07,0.2214121826768039
3.491422805247225e-07,0.22763665053323384
3.5015136226034305e-07,0.23389314907006567
3.511604439959636e-07,0.24017291954673353
3.5216952573158424e-07,0.24646754808340593
3.531786074672048e-07,0.25276893337034845
3.541876892028254e-07,0.2590692577774038
3.55196770938446e-07,0.26536096165687056
3.5620585267406657e-07,0.2716367206083032
3.5721493440968714e-07,0.27788942546450823
3.5822401614530776e-07,0.284112164759267
3.592330978809283e-07,0.29029820944544005
3.602421796165489e-07,0.29644099964444115
3.612512613521695e-07,0.3025341332227687
3.622603430877901e-07,0.3085713560070483
3.6326942482341065e-07,0.31454655346499166
3.6427850655903127e-07,0.3204537436952366
3.6528758829465184e-07,0.3262870715838507
3.662966700302724e-07,0.3320408039991265
3.6730575176589303e-07,0.3377093259090942
3.683148335015136e-07,0.3432871373178669
3.6932391523713417e-07,0.3487688509275561
3.703329969727548e-07,0.3541491904420731
3.7134207870837536e-07,0.3594229894377579
3.723511604439959e-07,0.3645851907334848
3.7336024217961655e-07,0.36963084619980363
3.743693239152371e-07,0.3745551169528295
3.753784056508577e-07,0.37935327388407775
3.7638748738647825e-07,0.38402069848233306
3.7739656912209887e-07,0.38855288390798953
3.7840565085771944e-07,0.39294543628416717
3.7941473259334e-07,0.3971940761723689
3.8042381432896063e-07,0.40129464020350264
3.814328960645812e-07,0.40524308283783883
3.8244197780020177e-07,0.4090354782299215
3.834510595358224e-07,0.41266802217662785
3.8446014127144296e-07,0.4161370341285303
3.854692230070635e-07,0.4194389592464703
3.8647830474268415e-07,0.4225703704868157
3.874873864783047e-07,0.42552797070030246
3.884964682139253e-07,0.4283085947306198
3.895055499495459e-07,0.43090921150006484
3.9051463168516647e-07,0.43332692607062445
3.9152371342078704e-07,0.43555898166979345
3.9253279515640766e-07,0.4376027616713012
3.9354187689202823e-07,0.43945579152170017
3.945509586276488e-07,0.4411157406044935
3.955600403632694e-07,0.44258042403414144
3.9656912209889e-07,0.4438478043728906
3.9757820383451055e-07,0.4449159932639366
3.985872855701312e-07,0.4457832529749542
3.9959636730575174e-07,0.44644799784651373
4.006054490413723e-07,0.44690879564035535
4.016145307769929e-07,0.4471643687829225
4.026236125126135e-07,0.44721359549995804
4.0363269424823407e-07,0.4470555108383386
4.0464177598385464e-07,0.44668930757169184
4.0565085771947526e-07,0.44611433698667863
4.0665993945509583e-07,0.4453301095471505
4.076690211907164e-07,0.44433629543370967
4.08678102926337e-07,0.4431327249564989
4.096871846619576e-07,0.4417193888393469
4.1069626639757815e-07,0.44009643837367574
4.117053481331988e-07,0.43826418544085877
4.1271442986881934e-07,0.43622310240199313
4.137235116044399e-07,0.4339738218543138
4.1473259334006053e-07,0.4315171362537515
4.157416750756811e-07,0.42885399740339947
4.1675075681130167e-07,0.42598551580791916
4.177598385469223e-07,0.42291295989418914
4.1876892028254286e-07,0.41963775509877005
4.197780020181634e-07,0.4161614828230383
4.2078708375378405e-07,0.4124858792571308
4.217961654894046e-07,0.40861283407413995
4.228052472250252e-07,0.4045443889963104
4.238143289606458e-07,0.4002827362353192
4.2482341069626637e-07,0.39583021680907643
4.2583249243188694e-07,0.39118931873786145
4.268415741675075e-07,0.38636267512302575
4.2785065590312813e-07,0.38135306211194764
4.288597376387487e-07,0.37616339675343985
4.2986881937436927e-07,0.3707967347483734
4.308779011099899e-07,0.3652562681009391
4.3188698284561046e-07,0.3595453226767136
4.32896064581231e-07,0.3536673556745607
4.3390514631685165e-07,0.34762595302041854
4.349142280524722e-07,0.3414248266922188
4.359233097880928e-07,0.3350678119866175
4.369323915237134e-07,0.3285588647399332
4.3794147325933397e-07,0.32190205851777437
4.3895055499495454e-07,0.3151015817903821
4.3995963673057516e-07,0.3081617351138415
4.4096871846619573e-07,0.30108692834120643
4.419778002018163e-07,0.29388167789242153
4.429868819374369e-07,0.28655060411803174
4.439959636730575e-07,0.2790984287994002
4.4500504540867806e-07,0.27152997283803126
4.460141271442987e-07,0.26385015419930347
4.4702320887991925e-07,0.2560639861924042
4.480322906155398e-07,0.24817657618982206
4.4904137235116043e-07,0.24019312491820557
4.50050454086781e-07,0.2321189264902799
4.5105953582240157e-07,0.22395936939843278
4.520686175580222e-07,0.21571993875973527
4.5307769929364276e-07,0.2074062201970897
4.5408678102926333e-07,0.19902390587301472
4.550958627648839e-07,0.19057880337791935
4.561049445005045e-07,0.1820768484387613
4.571140262361251e-07,0.17352412279562604
4.5812310797174565e-07,0.1649268791539378
4.591321897073663e-07,0.15629157595620138
4.6014127144298684e-07,0.14762492598839236
4.611503531786074e-07,0.13893396480768486
4.6215943491422803e-07,0.13022614810363695
4.631685166498486e-07,0.12150949218030575
4.6417759838546917e-07,0.11279278021057446
4.651866801210898e-07,0.10408587145033696
4.6619576185671036e-07,0.09540017639636028
4.6720484359233093e-07,0.08674940834809616
4.6821392532795155e-07,0.07815081282901834
4.692230070635721e-07,0.06962725875187956
4.702320887991927e-07,0.06121095938803747
4.712411705348133e-07,0.05295044329359663
4.722502522704339e-07,0.044924380563338355
4.7325933400605444e-07,0.03727063416919857
4.7426841574167506e-07,0.03024978667315411
4.7527749747729563e-07,0.02437801920305819
4.762865792129162e-07,0.02060832323762634
4.772956609485368e-07,0.02009580092035824
